Wavelength,EWT_0.001,EWT_0.011,EWT_0.021,EWT_0.031,EWT_0.041
400,0.04307819449251531,0.04307819449251531,0.04307819449251531,0.04307819449251531,0.04307819449251531
401,0.04307819449255868,0.04307819449255868,0.04307819449255868,0.04307819449255868,0.04307819449255868
402,0.04307819449267839,0.04307819449267839,0.04307819449267839,0.04307819449267839,0.04307819449267839
403,0.04307819449300216,0.04307819449300216,0.04307819449300216,0.04307819449300216,0.04307819449300216
404,0.04307819449385039,0.04307819449385039,0.043078194493850384,0.043078194493850384,0.043078194493850384
405,0.04307819449589079,0.04307819449589079,0.04307819449589078,0.04307819449589077,0.04307819449589077
406,0.042986406601195154,0.04298640660119514,0.04298640660119513,0.04298640660119512,0.04298640660119511
407,0.04289466321528881,0.042894663215288786,0.04289466321528876,0.04289466321528874,0.04289466321528871
408,0.04281606155164442,0.042816061551644365,0.042816061551644316,0.04281606155164426,0.04281606155164421
409,0.04272440116374414,0.04272440116374403,0.042724401163743916,0.04272440116374381,0.0427244011637437
410,0.04263278566153951,0.04263278566153929,0.042632785661539066,0.042632785661538844,0.042632785661538615
411,0.04256737363260857,0.042567373632608124,0.04256737363260768,0.04256737363260724,0.0425673736326068
412,0.042501984724915565,0.04250198472491469,0.04250198472491382,0.04250198472491295,0.042501984724912074
413,0.04242354860976606,0.04242354860976439,0.04242354860976272,0.042423548609761046,0.042423548609759366
414,0.04235821103619999,0.042358211036196865,0.04235821103619375,0.042358211036190634,0.04235821103618752
415,0.04229289720180415,0.04229289720179857,0.04229289720179298,0.042292897201787395,0.04229289720178181
416,0.042227607474527834,0.042227607474518196,0.04222760747450856,0.04222760747449892,0.04222760747448928
417,0.042175394240995666,0.04217539424097962,0.04217539424096359,0.042175394240947545,0.0421753942409315
418,0.04211014954571983,0.04211014954569402,0.0421101495456682,0.04211014954564238,0.04211014954561656
419,0.04205797447581509,0.042057974475774244,0.042057974475733395,0.042057974475692546,0.0420579744756517
420,0.04199277857796776,0.041992778577904025,0.0419927785778403,0.041992778577776564,0.04199277857771284
421,0.041953682226531855,0.04195368222643526,0.041953682226338655,0.04195368222624206,0.04195368222614546
422,0.04191460065261982,0.041914600652477714,0.041914600652335605,0.04191460065219349,0.04191460065205138
423,0.04186250436912092,0.04186250436891901,0.04186250436871709,0.04186250436851517,0.04186250436831326
424,0.0418234601915007,0.041823460191217555,0.04182346019093442,0.041823460190651286,0.041823460190368145
425,0.04178443759420934,0.041784437593815414,0.041784437593421486,0.041784437593027565,0.04178443759263364
426,0.041745436961154306,0.04174543696061911,0.04174543696008391,0.04174543695954872,0.041745436959013525
427,0.041706454528815766,0.041706454528118754,0.04170645452742174,0.04170645452672473,0.04170645452602772
428,0.04168051813961547,0.041680518138709766,0.04168051813780406,0.041680518136898353,0.041680518135992654
429,0.04164160041007737,0.041641600408891304,0.04164160040770524,0.04164160040651918,0.04164160040533312
430,0.041602712043035,0.04160271204151539,0.041602712039995784,0.04160271203847618,0.041602712036956584
431,0.04157686891218428,0.041576868910270695,0.04157686890835711,0.04157686890644352,0.04157686890452995
432,0.04153805521610068,0.04153805521371416,0.041538055211327654,0.041538055208941146,0.041538055206554646
433,0.04151229667255443,0.04151229666957589,0.04151229666659735,0.04151229666361882,0.04151229666064029
434,0.04147358214279897,0.04147358213911538,0.0414735821354318,0.04147358213174823,0.041473582128064665
435,0.04144791461016997,0.041447914605693144,0.041447914601216315,0.04144791459673951,0.0414479145922627
436,0.04142229143810869,0.04142229143273001,0.041422291427351356,0.04142229142197271,0.04142229141659408
437,0.04139671840101005,0.04139671839457106,0.041396718388132095,0.04139671838169314,0.041396718375254195
438,0.041371207625949036,0.041371207618280656,0.0413712076106123,0.04137120760294395,0.04137120759527563
439,0.04134575536292936,0.04134575535389996,0.041345755344870595,0.04134575533584125,0.04134575532681192
440,0.04132037915292435,0.04132037914234988,0.041320379131775435,0.04132037912120102,0.04132037911062662
441,0.041282160519111016,0.041282160506605686,0.04128216049410039,0.04128216048159512,0.04128216046908989
442,0.04124408123424911,0.041244081219451424,0.041244081204653775,0.04124408118985616,0.04124408117505859
443,0.04121912227436958,0.04121912225691042,0.04121912223945131,0.041219122221992234,0.04121912220453321
444,0.04118139290253427,0.04118139288184094,0.041181392861147664,0.04118139284045444,0.04118139281976127
445,0.041143939655986686,0.04114393963131214,0.04114393960663766,0.04114393958196324,0.04114393955728888
446,0.04111968502738875,0.04111968499809839,0.041119684968808114,0.04111968493951791,0.04111968491022778
447,0.04109580337444065,0.0410958033394803,0.041095803304520034,0.04109580326955987,0.04109580323459979
448,0.041059425840748426,0.04105942579876374,0.04105942575677916,0.04105942571479469,0.04105942567281033
449,0.04103658626638113,0.04103658621573495,0.0410365861650889,0.04103658611444299,0.04103658606379721
450,0.04101437422427136,0.04101437416311038,0.04101437410194956,0.04101437404078891,0.04101437397962843
451,0.040992868585954946,0.04099286851215623,0.040992868438357706,0.04099286836455939,0.04099286829076128
452,0.040972156833675645,0.040972156744813186,0.04097215665595097,0.040972156567089,0.04097215647822728
453,0.040952283097212584,0.04095228299066803,0.04095228288412378,0.04095228277757983,0.04095228267103618
454,0.040933316735220285,0.04093331660810623,0.04093331648099253,0.04093331635387919,0.04093331622676621
455,0.04091504231918341,0.04091504216915002,0.04091504201911707,0.04091504186908454,0.04091504171905244
456,0.040897610897247076,0.04089761072144886,0.04089761054565115,0.04089761036985395,0.04089761019405726
457,0.04089427399821968,0.040894273792866094,0.040894273587513096,0.04089427338216071,0.04089427317680892
458,0.04087916951370474,0.04087916927476845,0.04087916903583288,0.040879168796898006,0.04087916855796384
459,0.04087711960681266,0.04087711933339707,0.0408771190599823,0.04087711878656834,0.04087711851315521
460,0.04086282767825335,0.040862827367630104,0.0408628270570078,0.04086282674638643,0.040862826435766
461,0.04084886213319763,0.04084886178374805,0.040848861434299534,0.04084886108485208,0.04084886073540569
462,0.04084792525979952,0.04084792487062793,0.04084792448145755,0.04084792409228835,0.04084792370312036
463,0.0408340211085442,0.040834020679072346,0.040834020249601824,0.040834019820132635,0.04083401939066478
464,0.04083354964431568,0.04083354917236971,0.04083354870042522,0.04083354822848222,0.04083354775654069
465,0.04081938867297584,0.04081938816065065,0.040819387648327085,0.04081938713600514,0.04081938662368482
466,0.04081909118660999,0.0408190906295422,0.04081909007247618,0.040819089515411945,0.04081908895834949
467,0.040818218403384426,0.040818217800858474,0.04081821719833447,0.04081821659581242,0.04081821599329232
468,0.040806026793583784,0.04080602613935425,0.04080602548512687,0.04080602483090163,0.04080602417667853
469,0.040807183494864334,0.04080718278913171,0.040807182083401415,0.04080718137767345,0.040807180671947836
470,0.040807103757711544,0.04080710300384455,0.04080710224998006,0.040807101496118096,0.04080710074225864
471,0.040806355078256765,0.04080635427546837,0.04080635347268269,0.040806352669899716,0.04080635186711945
472,0.04079139999792474,0.04079139914844557,0.0407913982989693,0.04079139744949594,0.040791396600025474
473,0.04078993532698782,0.04078993442799385,0.040789933529002995,0.040789932630015256,0.04078993173103062
474,0.04077437781211587,0.04077437686807735,0.040774375924042136,0.04077437498001022,0.04077437403598161
475,0.04076951316209738,0.04076951218018396,0.04076951119827402,0.040769510216367544,0.04076950923446454
476,0.040765620693691405,0.0407656196684303,0.04076561864317286,0.040765617617919095,0.040765616592668995
477,0.04076177385951242,0.04076177278779718,0.040761771716085846,0.04076177064437839,0.04076176957267482
478,0.040744750141292155,0.040744749021660365,0.040744747902032696,0.04074474678240915,0.040744745662789725
479,0.04074150712997198,0.0407415059598493,0.040741504789730994,0.04074150361961705,0.04074150244950747
480,0.04074114781424514,0.04074114658016248,0.040741145346084494,0.04074114411201118,0.04074114287794253
481,0.040741631241269075,0.04074162993609777,0.04074162863093149,0.04074162732577024,0.04074162602061401
482,0.04073200820190631,0.04073200681121225,0.04073200542052364,0.04073200402984048,0.040732002639162775
483,0.04073757588122544,0.04073757439378109,0.04073757290634268,0.0407375714189102,0.040737569931483655
484,0.040734782973656396,0.04073478137045486,0.040734779767259824,0.0407347781640713,0.04073477656088927
485,0.04074950516892519,0.040749503429176374,0.040749501689434725,0.040749499949700244,0.04074949820997293
486,0.040769601205234395,0.0407695992985128,0.040769597391799216,0.040769595485093624,0.04076959357839603
487,0.040782628428714204,0.04078262631665234,0.040782624204599535,0.04078262209255579,0.04078261998052111
488,0.04081639059819216,0.0408163882367922,0.040816385875402615,0.0408163835140234,0.040816381152654554
489,0.040845791689845916,0.040845789033255794,0.0408457863766776,0.04084578372011134,0.04084578106355701
490,0.04089600261936726,0.04089599962091745,0.040895996622481404,0.040895993624059136,0.04089599062565063
491,0.04095468178691467,0.040954678387520295,0.04095467498814192,0.04095467158877953,0.04095466818943314
492,0.04101057795684991,0.041010574088493804,0.041010570220156355,0.04101056635183757,0.04101056248353745
493,0.041091148526501094,0.0410911441058679,0.04109113968525661,0.041091135264667206,0.041091130844099696
494,0.04117037541689064,0.041170370357606345,0.04117036529834779,0.04117036023911498,0.04117035517990791
495,0.04127673963542865,0.04127673382223259,0.04127672800906699,0.04127672219593183,0.04127671638282712
496,0.041385951165126764,0.04138594445394617,0.041385937742801894,0.041385931031693926,0.04138592432062226
497,0.04151300831605653,0.04151300053089305,0.04151299274577324,0.041512984960697094,0.041512977175664614
498,0.04167286405691579,0.041672855008642755,0.041672845960422374,0.041672836912254665,0.04167282786413961
499,0.041840445653457785,0.0418404351441833,0.04184042463497225,0.04184041412582464,0.041840403616740476
500,0.04203304608786627,0.0420330338617207,0.04203302163565176,0.04203300940965943,0.04203299718374372
501,0.042251819365226775,0.042251805122919706,0.042251790880705443,0.04225177663858398,0.04225176239655533
502,0.04249758392048263,0.04249756733872387,0.04249755075707752,0.04249753417554359,0.04249751759412207
503,0.04278762923487038,0.04278760993626292,0.04278759063779159,0.042787571339456404,0.04278755204125736
504,0.043098515351143424,0.04309849293226267,0.04309847051354633,0.043098448094994406,0.043098425676606884
505,0.043445706487654945,0.043445680505892065,0.04344565452432702,0.0434456285429598,0.04344560256179042
506,0.04383383942789474,0.04383380934489043,0.04383377926212393,0.04383374917959523,0.04383371909730435
507,0.04426340889850238,0.04426337411711547,0.04426333933601409,0.04426330455519821,0.044263269774667845
508,0.04473749726194324,0.04473745712190313,0.04473741698220514,0.044737376842849265,0.044737336703835506
509,0.04525927383373076,0.045259227653293696,0.04525918147326474,0.04525913529364391,0.045259089114431175
510,0.045831792346626064,0.0458317393145624,0.04583168628298465,0.04583163325189283,0.045831580221286916
511,0.04645918466763029,0.04645912383663241,0.04645906300621275,0.046459002176371306,0.04645894134710808
512,0.04713209454700315,0.04713202493509651,0.04713195532387586,0.047131885713341204,0.04713181610349254
513,0.047875980675497566,0.04787590128391132,0.04787582189313525,0.04787574250316934,0.0478756631140136
514,0.04866889433950935,0.04866880417801789,0.04866871401747715,0.04866862385788711,0.04866853369924777
515,0.04953093336874207,0.049530831457604604,0.04953072954757557,0.049530627638654956,0.049530525730842725
516,0.05043941047053951,0.05043929544928029,0.05043918042931297,0.05043906541063753,0.050438950393253947
517,0.05141526271445051,0.05141513306271259,0.05141500341248119,0.05141487376375633,0.05141474411653807
518,0.05242893125768516,0.05242878653849642,0.05242864182103615,0.05242849710530438,0.05242835239130109
519,0.05350703354390373,0.05350687445565629,0.05350671536933821,0.05350655628494942,0.05350639720248989
520,0.05461580584480946,0.05461563189653111,0.05461545795039044,0.054615284006387474,0.054615110064522195
521,0.05576754152740357,0.055767350682187584,0.05576715983936388,0.05576696899893251,0.05576677816089342
522,0.0569591003107914,0.05695889289078774,0.056958685473419486,0.05695847805868659,0.05695827064658909
523,0.05819330601497058,0.05819308510431299,0.058192864196452546,0.05819264329138926,0.058192422389123054
524,0.059433839385508,0.05943360348974536,0.05943336759697765,0.059433131707204885,0.05943289582042699
525,0.06068872930954135,0.060688471628292176,0.06068821395040998,0.06068795627589468,0.0606876986047463
526,0.0619510243599923,0.06195074344015822,0.0619504625241068,0.061950181611837976,0.06194990070335166
527,0.0632143870040234,0.06321408863719921,0.06321379027442153,0.06321349191569028,0.06321319356100537
528,0.06447146639623869,0.06447115321784207,0.0644708400436864,0.06447052687377172,0.06447021370809791
529,0.0657234409978807,0.06572310974566707,0.06572277849797944,0.06572244725481774,0.06572211601618189
530,0.0669652605353009,0.06696490737847666,0.0669645542265728,0.0669642010795893,0.06696384793752605
531,0.0681913302492635,0.06819095242688235,0.06819057460990172,0.06819019679832149,0.06818981899214162
532,0.06939824953227332,0.06939784671479471,0.0693974439032172,0.06939704109754066,0.06939663829776499
533,0.07056902553716277,0.0705685994894277,0.0705681734480533,0.07056774741303945,0.07056732138438598
534,0.07172954254334415,0.07172909323926917,0.07172864394202486,0.07172819465161114,0.0717277453680279
535,0.0728644004445794,0.0728639259971424,0.07286345155707485,0.07286297712437664,0.07286250269904768
536,0.07397257318010102,0.07397207355974864,0.07397157394731818,0.0739710743428096,0.07397057474622268
537,0.0750434200214797,0.07504289730940152,0.07504237460574303,0.07504185191050403,0.0750413292236844
538,0.07610472883443611,0.07610418246853658,0.07610363611158269,0.07610308976357419,0.07610254342451095
539,0.07712615270852466,0.07712557949229953,0.077125006285664,0.07712443308861786,0.0771238599011609
540,0.07813408655341744,0.07813348722322369,0.07813288790325393,0.07813228859350799,0.07813168929398562
541,0.0791242725196797,0.07912365152052848,0.07912303053209421,0.07912240955437672,0.07912178858737581
542,0.0800761885219191,0.08007554419743254,0.08007489988422359,0.08007425558229204,0.08007361129163765
543,0.0810246596052737,0.08102398340546353,0.08102330721780633,0.08102263104230187,0.08102195487894984
544,0.08194184767785628,0.08194113668509861,0.0819404257054987,0.08193971473905623,0.081939003785771
545,0.08286035518770003,0.08285961363128169,0.08285887208889081,0.08285813056052707,0.08285738904619018
546,0.08374851562687166,0.08374774542331215,0.0837469752345944,0.08374620506071814,0.08374543490168296
547,0.08462558728281691,0.08462478612682231,0.08462398498659254,0.08462318386212717,0.08462238275342589
548,0.08545357528426348,0.08545274088533404,0.08545190650320997,0.08545107213789083,0.08545023778937633
549,0.08625624914296168,0.0862553798651603,0.08625451060530356,0.08625364136339099,0.08625277213942219
550,0.08699227724983162,0.08699137316610933,0.08699046910150822,0.08698956505602781,0.08698866102966762
551,0.08766403984526439,0.08766310207982797,0.08766216433468682,0.0876612266098404,0.08766028890528813
552,0.0882700807868037,0.0882691113486983,0.08826814193202545,0.08826717253678451,0.088266203162975
553,0.08877330530964697,0.08877230682032308,0.08877130835350615,0.08877030990919554,0.08876931148739071
554,0.08918918516921465,0.08918816108182909,0.0891871370179255,0.08918611297750334,0.08918508896056188
555,0.08947611675950135,0.08947507176536232,0.08947402679552538,0.08947298184998984,0.08947193692875509
556,0.08964363168783326,0.08964257036776646,0.08964150907266853,0.08964044780253874,0.08963938655737645
557,0.0896900200770005,0.08968894668342864,0.08968787331535147,0.08968679997276825,0.0896857266556783
558,0.08960317165103499,0.08960208933684544,0.08960100704859102,0.08959992478627096,0.08959884254988448
559,0.08939070392916164,0.08938961460041009,0.08938852529800459,0.08938743602194438,0.08938634677222868
560,0.08905196576841853,0.089050871606422,0.08904977747114073,0.08904868336257396,0.08904758928072087
561,0.08862984068941511,0.08862874389296344,0.08862764712353342,0.08862655038112419,0.08862545366573504
562,0.08815741476686847,0.08815631772673388,0.08815522071383801,0.08815412372818007,0.08815302676975927
563,0.08763023493637692,0.08762914031346851,0.087628045717914,0.08762695114971253,0.08762585660886335
564,0.08704888296436616,0.087047790737792,0.08704669853871819,0.08704560636714392,0.08704451422306846
565,0.08641778190995225,0.08641668987580889,0.08641559786945391,0.08641450589088655,0.08641341394010588
566,0.08573598449724193,0.08573489400691156,0.08573380354462212,0.08573271311037275,0.0857316227041626
567,0.08500428985877928,0.08500320543324497,0.08500212103580355,0.08500103666645428,0.08499995232519617
568,0.08423934328121752,0.08423826553319774,0.08423718781332076,0.0842361101215857,0.08423503245799163
569,0.08342463155023488,0.083423557229546,0.08342248293724633,0.08342140867333496,0.08342033443781102
570,0.0825851071100892,0.08258403460345473,0.0825829621255661,0.08258188967642244,0.08258081725602277
571,0.08172904986337504,0.08172797973899318,0.0817269096437059,0.08172583957751225,0.08172476954041127
572,0.08086917129400427,0.08086810408924856,0.0808670369139223,0.08086596976802454,0.08086490265155433
573,0.08003749076692608,0.08003642554472157,0.08003536035233766,0.0800342951897734,0.08003323005702778
574,0.07921520224747727,0.07921413654512804,0.07921307087313079,0.07921200523148451,0.07921093962018826
575,0.07841877657197444,0.07841770715519947,0.07841663776949728,0.07841556841486685,0.07841449909130711
576,0.0776562832665002,0.07765521031492262,0.07765413739512983,0.07765306450712076,0.07765199165089429
577,0.07693294501612391,0.07693187068287276,0.07693079638198441,0.07692972211345775,0.07692864787729159
578,0.07626104814485551,0.0762599681044913,0.07625888809732304,0.07625780812334944,0.07625672818256937
579,0.07561013593916752,0.07560904146221967,0.07560794701985057,0.0756068526120589,0.07560575823884344
580,0.074989648808198,0.07498853952834009,0.07498743028449435,0.07498632107665942,0.07498521190483395
581,0.07440206848505748,0.0744009508878872,0.07439983332775515,0.07439871580465994,0.07439759831860011
582,0.07383788154737476,0.07383675222903119,0.07383562294899279,0.07383449370725803,0.07383336450382544
583,0.07331696610245245,0.07331581202768755,0.07331465799341609,0.07331350399963649,0.07331235004634704
584,0.0728045872545191,0.07280340336041138,0.0728022195094225,0.07280103570155066,0.07279985193679404
585,0.07232011282657747,0.07231890149882882,0.07231769021673032,0.07231647898028001,0.07231526778947586
586,0.07188130836491183,0.07188006943278677,0.07187883054892089,0.07187759171331198,0.07187635292595787
587,0.07144855453208303,0.07144728303403498,0.07144601158733396,0.07144474019197751,0.07144346884796328
588,0.07105569997903732,0.0710543917048653,0.07105308348557349,0.0710517753211592,0.07105046721161978
589,0.07067499192401282,0.07067364489332084,0.070672297921331,0.07067095100804037,0.070669604153446
590,0.07034177455563312,0.07034038725265247,0.0703390000124414,0.07033761283499665,0.07033622572031496
