Wavelength	MAC_ARB_098_xx4_310321_L00001.asd
350	 0.259344087195626 
351	 8.39408646349472E-02 
352	 8.17213051157551E-02 
353	-0.150845185533878 
354	-3.39256839951269E-02 
355	 0.15781121349636 
356	 0.263233799037575 
357	 0.081020995195252 
358	 1.22441674059835E-04 
359	 3.44503077716502E-02 
360	 9.22046733209245E-02 
361	 0.147924530397686 
362	 4.19050523654477E-02 
363	-6.35640613121126E-02 
364	 5.70629097702459E-02 
365	 3.01786621786724E-02 
366	 1.03102983047875E-02 
367	 6.59274163280011E-02 
368	 0.123515146312576 
369	 0.100216782770677 
370	 4.53781179607839E-02 
371	 1.90618632357218E-02 
372	 4.82811241319048E-02 
373	 6.70902460357265E-02 
374	 7.59763992581128E-02 
375	 0.100392364422493 
376	 0.111460230125784 
377	 9.17370166513166E-02 
378	 5.98612062038038E-02 
379	 7.02486720173979E-02 
380	 5.75242761239453E-02 
381	 5.05166952255974E-02 
382	 7.39661167287663E-02 
383	 9.24901592792357E-02 
384	 0.095724083142371 
385	 8.83504468732334E-02 
386	 8.26080553058746E-02 
387	 9.42468257480755E-02 
388	 8.62451707620751E-02 
389	 5.92815463864951E-02 
390	 5.81311568022541E-02 
391	 7.12120232358247E-02 
392	 6.69164777323588E-02 
393	 3.63800868894126E-02 
394	 3.84320466114984E-02 
395	 5.31842569575771E-02 
396	 6.10323137958436E-02 
397	 5.12903919475197E-02 
398	 6.63851264279613E-02 
399	 8.19141213839499E-02 
400	 8.37577983819344E-02 
401	 7.38147263874417E-02 
402	 6.64382774444717E-02 
403	 6.26542908133644E-02 
404	 6.22508371869239E-02 
405	 7.16144606511097E-02 
406	 7.92654867840183E-02 
407	 7.97490559704342E-02 
408	 7.33278921646427E-02 
409	 7.29382875493285E-02 
410	 7.20885263826795E-02 
411	 0.069596574559541 
412	 7.12592234009307E-02 
413	 7.67000385315401E-02 
414	 7.93425798279031E-02 
415	 7.56121190908009E-02 
416	 7.17882228562093E-02 
417	 6.88909810905746E-02 
418	 6.80619878846084E-02 
419	 6.95795171723236E-02 
420	 6.92636170038969E-02 
421	 6.63543799453121E-02 
422	 6.37781340364008E-02 
423	 6.82257832003053E-02 
424	 7.15761810153183E-02 
425	 7.22764138532673E-02 
426	 7.04982814343152E-02 
427	 6.54882910869123E-02 
428	 6.60571212312139E-02 
429	 7.02799697591621E-02 
430	 7.08008048574374E-02 
431	 0.068035726061809 
432	 6.75425112644525E-02 
433	 0.070171637388435 
434	 6.96339883513026E-02 
435	 6.58089437565964E-02 
436	 6.34449815172776E-02 
437	 0.066221798107166 
438	 7.00659570020843E-02 
439	 6.87465142805607E-02 
440	 6.58920748211792E-02 
441	 0.070673782258426 
442	 7.38733509055098E-02 
443	 7.31036102434652E-02 
444	 6.94270094614333E-02 
445	 6.79661582734021E-02 
446	 6.94050048551523E-02 
447	 7.00703255003927E-02 
448	 6.69523529628747E-02 
449	 6.86754517922821E-02 
450	 0.070966412495242 
451	 7.14225142949309E-02 
452	 7.00371314971206E-02 
453	 6.78783924914997E-02 
454	 0.067713530499305 
455	 7.02832335884832E-02 
456	 7.12457500985031E-02 
457	 6.97328830670119E-02 
458	 6.69641113351633E-02 
459	 6.55530798214052E-02 
460	 6.91139670674945E-02 
461	 7.23744649345833E-02 
462	 0.072471381594303 
463	 7.04119084163852E-02 
464	 7.01201330720835E-02 
465	 7.00944468010543E-02 
466	 6.86450410480152E-02 
467	 6.85233583070545E-02 
468	 6.88550778959288E-02 
469	 6.88026588935634E-02 
470	 6.77520886814095E-02 
471	 6.71754282209119E-02 
472	 6.59099748975048E-02 
473	 6.42670573430806E-02 
474	 6.58412606892046E-02 
475	 0.066961813472506 
476	 6.69870232099077E-02 
477	 6.67974390382154E-02 
478	 6.97346110462108E-02 
479	 6.97506785533627E-02 
480	 6.73002989235789E-02 
481	 6.87403969169792E-02 
482	 6.94203915254514E-02 
483	 6.90176587864558E-02 
484	 6.83167596216947E-02 
485	 0.068963389308771 
486	 6.87933424787769E-02 
487	 6.85307400957338E-02 
488	 6.95417853380886E-02 
489	 6.73088995764343E-02 
490	 6.65735279378253E-02 
491	 6.85136411755618E-02 
492	 6.86053113036841E-02 
493	 6.98616232839135E-02 
494	 7.05748034441882E-02 
495	 6.92322097759817E-02 
496	 6.93375460911413E-02 
497	 6.85942054328147E-02 
498	 6.77872794273513E-02 
499	 6.95146933101717E-02 
500	 6.99469301933484E-02 
501	 6.97300913164162E-02 
502	 6.99600747413028E-02 
503	 7.14428958530818E-02 
504	 7.17856209909582E-02 
505	 7.21036389505551E-02 
506	 7.41407312017565E-02 
507	 7.54091730637902E-02 
508	 7.56278680912864E-02 
509	 7.64017268130581E-02 
510	 0.080949799212082 
511	 8.10206443009116E-02 
512	 8.11748227312654E-02 
513	 8.53722295382361E-02 
514	 8.70800666977092E-02 
515	 8.83155576708644E-02 
516	 9.01414519609021E-02 
517	 9.28555016204699E-02 
518	 9.46511071620808E-02 
519	 9.70125285825681E-02 
520	 0.100078431540752 
521	 0.100955613946241 
522	 0.103276207802138 
523	 0.1067716440271 
524	 0.110121765739843 
525	 0.113564967047531 
526	 0.116754799705158 
527	 0.119348293040428 
528	 0.121096851636715 
529	 0.122761144525623 
530	 0.125287252365269 
531	 0.128263193823823 
532	 0.127360919399063 
533	 0.128781676348653 
534	 0.132191226504934 
535	 0.134043864050013 
536	 0.13400566921379 
537	 0.134926011545233 
538	 0.137351450563409 
539	 0.137940820361233 
540	 0.138863160548016 
541	 0.140203170858346 
542	 0.141536192984221 
543	 0.142970464063496 
544	 0.143814151495378 
545	 0.143776091223848 
546	 0.143058949449566 
547	 0.144113185365512 
548	 0.145441196206904 
549	 0.145898155311294 
550	 0.147216249423438 
551	 0.147467336871687 
552	 0.147054400386419 
553	 0.147273094937916 
554	 0.147091730019986 
555	 0.146810153584354 
556	 0.146587141466688 
557	 0.146214649561774 
558	 0.145545232620297 
559	 0.144623117214636 
560	 0.143667654835615 
561	 0.143383074192226 
562	 0.142398881165757 
563	 0.140781265118185 
564	 0.13974068530471 
565	 0.138392273064284 
566	 0.136560792043991 
567	 0.134537781230515 
568	 0.133542172758982 
569	 0.131999635282318 
570	 0.130086290915409 
571	 0.128638923706551 
572	 0.12705296338376 
573	 0.125698690702931 
574	 0.124457227924173 
575	 0.12243515875358 
576	 0.12084359312693 
577	 0.119539852281268 
578	 0.11820634638902 
579	 0.117412538589025 
580	 0.116835915871247 
581	 0.115980811397739 
582	 0.114364213764829 
583	 0.113271178544301 
584	 0.111972219651392 
585	 0.110356375260987 
586	 0.110535125767299 
587	 0.11007759160865 
588	 0.109164589795181 
589	 0.108768962629853 
590	 0.107696081060127 
591	 0.10666899481243 
592	 0.106118847788343 
593	 0.105936173580384 
594	 0.105398199512513 
595	 0.104922953509894 
596	 0.104823541722294 
597	 0.103801779336992 
598	 0.103911953244506 
599	 0.104614205150175 
600	 0.103757826258942 
601	 0.102860886379636 
602	 0.102307714926169 
603	 0.102078120184346 
604	 0.101722096585502 
605	 0.101063119167365 
606	 0.100555336895678 
607	 0.100545291091079 
608	 9.92468130683578E-02 
609	 9.81883060295483E-02 
610	 9.78197552693714E-02 
611	 9.71748892281751E-02 
612	 9.58352926078962E-02 
613	 9.44001613554498E-02 
614	 9.34983076824781E-02 
615	 9.30719333491346E-02 
616	 9.28815093162911E-02 
617	 9.22147113763337E-02 
618	 9.03737045188583E-02 
619	 8.93230318041224E-02 
620	 8.87767536817586E-02 
621	 8.84355844513934E-02 
622	 8.85331382161648E-02 
623	 8.82108101631016E-02 
624	 8.78740076697404E-02 
625	 8.80104377505303E-02 
626	 8.73306514075898E-02 
627	 8.67407695365228E-02 
628	 8.67160671346789E-02 
629	 8.71887063425313E-02 
630	 8.72569025861993E-02 
631	 8.70270712463927E-02 
632	 8.67699272550157E-02 
633	 0.086586398363776 
634	 8.64261011099414E-02 
635	 8.62896003113259E-02 
636	 8.61346911921357E-02 
637	 8.55042523869518E-02 
638	 8.47146954191455E-02 
639	 8.37696850520946E-02 
640	 8.21248424838458E-02 
641	 8.16071692941588E-02 
642	 8.09769324472504E-02 
643	 7.90435668279975E-02 
644	 7.81312727827528E-02 
645	 7.72733919552375E-02 
646	 7.64118442087906E-02 
647	 7.60972713321543E-02 
648	 7.54084068636786E-02 
649	 7.47027206757773E-02 
650	 7.41615423728828E-02 
651	 7.31738807066794E-02 
652	 7.25139918189946E-02 
653	 7.21650333415248E-02 
654	 7.18616591392467E-02 
655	 7.18201131381761E-02 
656	 0.071130568491463 
657	 7.00056392305795E-02 
658	 6.97944399293762E-02 
659	 6.94695610404671E-02 
660	 6.89156387872336E-02 
661	 6.81432225043883E-02 
662	 6.68807533640671E-02 
663	 0.066245181862978 
664	 0.066331627728528 
665	 6.65762429093981E-02 
666	 6.59782858794327E-02 
667	 6.52791796722708E-02 
668	 6.49508277709636E-02 
669	 6.48418831387107E-02 
670	 6.50005583001121E-02 
671	 6.48717111157084E-02 
672	 6.41647163720961E-02 
673	 6.40028900634494E-02 
674	 6.41493751032027E-02 
675	 6.45411587092296E-02 
676	 6.51570458016446E-02 
677	 6.51952948356649E-02 
678	 0.065062237409296 
679	 6.50546083605732E-02 
680	 6.49295682227664E-02 
681	 6.53748788148815E-02 
682	 6.60003974900726E-02 
683	 6.63111399451582E-02 
684	 0.067020136981431 
685	 6.83760566749065E-02 
686	 7.00548712395126E-02 
687	 7.13074212595652E-02 
688	 7.22544388053356E-02 
689	 7.41384615409793E-02 
690	 7.76051035813633E-02 
691	 8.16298149704608E-02 
692	 8.61783533909942E-02 
693	 9.18160225354936E-02 
694	 9.89038833106231E-02 
695	 0.105213431119356 
696	 0.112668863220413 
697	 0.121609148054572 
698	 0.130566955546931 
699	 0.140101040041838 
700	 0.150496998111171 
701	 0.161328075349504 
702	 0.170288610305086 
703	 0.179671719028104 
704	 0.189705817060647 
705	 0.199681495484327 
706	 0.209347315778992 
707	 0.218590958563721 
708	 0.227528527329983 
709	 0.236536034699289 
710	 0.244829648442305 
711	 0.253202285778059 
712	 0.262141356553083 
713	 0.270339280069107 
714	 0.278062587190415 
715	 0.285644030357395 
716	 0.293274415060102 
717	 0.299874115746972 
718	 0.306753778159241 
719	 0.314027473897141 
720	 0.320163974401266 
721	 0.326274857465075 
722	 0.332011168687804 
723	 0.337126386231129 
724	 0.342578880827313 
725	 0.347952310088621 
726	 0.353002078271368 
727	 0.357556061616683 
728	 0.36137222095837 
729	 0.365164410429877 
730	 0.369059309833112 
731	 0.372358941693211 
732	 0.375379276932135 
733	 0.378246751247434 
734	 0.380983319415424 
735	 0.383363566802198 
736	 0.386137809636218 
737	 0.388691562745975 
738	 0.390098514947685 
739	 0.392300135314191 
740	 0.39405112370713 
741	 0.395171285990306 
742	 0.396959284402648 
743	 0.397725828902276 
744	 0.398637803472849 
745	 0.400496322837918 
746	 0.401545758990034 
747	 0.402546102811197 
748	 0.403605607095988 
749	 0.404525120181465 
750	 0.404881324237656 
751	 0.405468075900191 
752	 0.406243861425714 
753	 0.406322620287003 
754	 0.406972730325011 
755	 0.407816578558139 
756	 0.408313368487413 
757	 0.408215100952515 
758	 0.408403049061173 
759	 0.408715717797179 
760	 0.408751099054475 
761	 0.40902283583133 
762	 0.409365387421359 
763	 0.409587475753241 
764	 0.4095514315594 
765	 0.409687560867386 
766	 0.409837889243337 
767	 0.410011151920132 
768	 0.410697100040874 
769	 0.410771786572429 
770	 0.410458418912419 
771	 0.410313639477529 
772	 0.410455250819823 
773	 0.410652813878814 
774	 0.410698977385345 
775	 0.410539130917504 
776	 0.411165562394102 
777	 0.411268389531334 
778	 0.410695294793499 
779	 0.411009996034973 
780	 0.411556027836553 
781	 0.4118543078884 
782	 0.411736562645049 
783	 0.41175443005059 
784	 0.411737699317409 
785	 0.411840636823881 
786	 0.412162794567761 
787	 0.41183888751349 
788	 0.411937808347421 
789	 0.412463583847542 
790	 0.41246766782884 
791	 0.412032559822294 
792	 0.412003022815571 
793	 0.412588933060686 
794	 0.412773544183897 
795	 0.413054325101703 
796	 0.41299555058442 
797	 0.412436371477173 
798	 0.412900503855683 
799	 0.413049841714876 
800	 0.412938037483976 
801	 0.413194626770597 
802	 0.413165350927411 
803	 0.413022792751016 
804	 0.412968974608376 
805	 0.413135246197752 
806	 0.413074182961629 
807	 0.413287842923228 
808	 0.413793621691696 
809	 0.41342971689408 
810	 0.413264599092274 
811	 0.413524911908067 
812	 0.413951319007916 
813	 0.413524630157778 
814	 0.413430732140912 
815	 0.413790942847613 
816	 0.414103319054705 
817	 0.413970513559862 
818	 0.41386779944245 
819	 0.413890764441966 
820	 0.413725695805715 
821	 0.413547438337557 
822	 0.413777758896168 
823	 0.414245748068313 
824	 0.41375457711055 
825	 0.414205211359285 
826	 0.414656383702131 
827	 0.414270161795546 
828	 0.414977467112687 
829	 0.41484496471284 
830	 0.414256255468738 
831	 0.414346212243514 
832	 0.41442151523497 
833	 0.414513212869274 
834	 0.414775715012605 
835	 0.415346761118703 
836	 0.415594801426826 
837	 0.415501566846968 
838	 0.415431150235142 
839	 0.416022828172393 
840	 0.415387169854127 
841	 0.414730871897815 
842	 0.414957067325701 
843	 0.414963529438736 
844	 0.414993184296437 
845	 0.415495566760227 
846	 0.416423618746642 
847	 0.415721053638232 
848	 0.415781446542 
849	 0.416336104653615 
850	 0.416112769776183 
851	 0.416255002884121 
852	 0.416174866713617 
853	 0.415928003362191 
854	 0.416072503588716 
855	 0.416274259773471 
856	 0.416651023631854 
857	 0.417014879263353 
858	 0.41681033525249 
859	 0.416365004299685 
860	 0.416205609723412 
861	 0.416487634598439 
862	 0.416643351623489 
863	 0.416768757439522 
864	 0.416955141445921 
865	 0.417139887097087 
866	 0.416780132306091 
867	 0.416385666347327 
868	 0.416525689216063 
869	 0.417235109131266 
870	 0.416319474346296 
871	 0.41628459795975 
872	 0.417252048100409 
873	 0.417812773694172 
874	 0.416673386293849 
875	 0.416632220430628 
876	 0.417958756488252 
877	 0.418573187343347 
878	 0.417229822774522 
879	 0.416505507327929 
880	 0.417384615252855 
881	 0.418408419299401 
882	 0.418223483406512 
883	 0.417671886113279 
884	 0.417729233886558 
885	 0.418790603979213 
886	 0.418388089436626 
887	 0.417418663095257 
888	 0.417182822187456 
889	 0.41805820490408 
890	 0.417519713537131 
891	 0.416934711771404 
892	 0.417731044172859 
893	 0.418001119884122 
894	 0.417689207256677 
895	 0.417498156505895 
896	 0.418097892808728 
897	 0.418825840969915 
898	 0.418847721277516 
899	 0.418514173065726 
900	 0.418555765376538 
901	 0.418368192831442 
902	 0.417951492055355 
903	 0.418011910716963 
904	 0.419050417785214 
905	 0.417866468676636 
906	 0.417058391860069 
907	 0.417475504069208 
908	 0.418159870838597 
909	 0.418360414552277 
910	 0.417996556675517 
911	 0.417727716439407 
912	 0.418519516016441 
913	 0.418558949020731 
914	 0.418429408902788 
915	 0.41836242231817 
916	 0.417962292628064 
917	 0.418741520971714 
918	 0.418824725862412 
919	 0.417838822007155 
920	 0.417900243884802 
921	 0.417486197807688 
922	 0.417230974947026 
923	 0.417643195281287 
924	 0.418419109395145 
925	 0.418194045821322 
926	 0.417920268819671 
927	 0.418609171283201 
928	 0.42037468987688 
929	 0.419447764890768 
930	 0.417337194099194 
931	 0.416354370250069 
932	 0.417636390513626 
933	 0.417325473295651 
934	 0.416948004152762 
935	 0.41783829891341 
936	 0.418075502259004 
937	 0.417455748497606 
938	 0.416407350399703 
939	 0.415737207737927 
940	 0.41649241734394 
941	 0.416654839668207 
942	 0.416211985445405 
943	 0.41633521586734 
944	 0.419451791193281 
945	 0.419477770611885 
946	 0.41707125820771 
947	 0.414939376175503 
948	 0.415304090963017 
949	 0.415791046033722 
950	 0.41655318554773 
951	 0.417621898875099 
952	 0.417205047484221 
953	 0.415657709204631 
954	 0.41430696597556 
955	 0.413917295520679 
956	 0.413284917756101 
957	 0.414162299136712 
958	 0.41436523945103 
959	 0.412595596225576 
960	 0.411703050377758 
961	 0.413755563709782 
962	 0.414894965633899 
963	 0.41291307731691 
964	 0.412222213616107 
965	 0.412000487162209 
966	 0.41217789514281 
967	 0.412081355687603 
968	 0.409983950954931 
969	 0.407967527352115 
970	 0.409858293741868 
971	 0.414469390777062 
972	 0.412730199325554 
973	 0.41141245526075 
974	 0.412345313822537 
975	 0.413561272472014 
976	 0.410037451392378 
977	 0.411958629729254 
978	 0.413518664387481 
979	 0.410924546608364 
980	 0.40744355861409 
981	 0.412295999103438 
982	 0.414409005777128 
983	 0.412047696263121 
984	 0.415204317428584 
985	 0.414037975281281 
986	 0.413335769868227 
987	 0.412982621595447 
988	 0.40869132861266 
989	 0.408967559296543 
990	 0.411003248104298 
991	 0.413191676436857 
992	 0.415263387318265 
993	 0.41504768704329 
994	 0.414419883192204 
995	 0.414744805873372 
996	 0.416016040144202 
997	 0.414897520951863 
998	 0.414109249839688 
999	 0.411680058639074 
1000	 0.407543790227151 
1001	 0.413096594801552 
1002	 0.412825089851513 
1003	 0.414083648617228 
1004	 0.415256437172062 
1005	 0.415009765779971 
1006	 0.41427822765274 
1007	 0.413426315858318 
1008	 0.413724914553486 
1009	 0.41525648206957 
1010	 0.416437270172306 
1011	 0.417711377315703 
1012	 0.418420124882309 
1013	 0.418580069220135 
1014	 0.417865611246311 
1015	 0.418294348103961 
1016	 0.418768545196204 
1017	 0.419008184623923 
1018	 0.419861591469779 
1019	 0.419854126397546 
1020	 0.419475780183043 
1021	 0.419563980406424 
1022	 0.419708648539897 
1023	 0.420371577909132 
1024	 0.420520051272482 
1025	 0.420618638725002 
1026	 0.42003699847275 
1027	 0.419731176186084 
1028	 0.419422276989748 
1029	 0.419196885522521 
1030	 0.419420728722144 
1031	 0.418715448720891 
1032	 0.41763838644344 
1033	 0.417855609435053 
1034	 0.418279525572612 
1035	 0.418717120556377 
1036	 0.420394976082241 
1037	 0.42090021329761 
1038	 0.420789904661168 
1039	 0.420369309891448 
1040	 0.41995361394461 
1041	 0.420567892367305 
1042	 0.420634128862775 
1043	 0.420749464968148 
1044	 0.42121642310975 
1045	 0.4201480771934 
1046	 0.420111090180074 
1047	 0.420386053378786 
1048	 0.420438993512857 
1049	 0.420740142200067 
1050	 0.421009175803288 
1051	 0.421150979023977 
1052	 0.421326879984177 
1053	 0.421129862374098 
1054	 0.420577053147005 
1055	 0.42019499799133 
1056	 0.419831204932875 
1057	 0.420273121280056 
1058	 0.421387940436633 
1059	 0.422145621717794 
1060	 0.422791646642121 
1061	 0.423238139349273 
1062	 0.4233803179941 
1063	 0.423372127299932 
1064	 0.423136911676 
1065	 0.422910219587806 
1066	 0.423212398475741 
1067	 0.423137571699292 
1068	 0.42324799275531 
1069	 0.423420275540419 
1070	 0.4229529405501 
1071	 0.422989174978449 
1072	 0.423078114888124 
1073	 0.423534133288462 
1074	 0.423891410300569 
1075	 0.4243592085602 
1076	 0.42430894331228 
1077	 0.424251698994481 
1078	 0.423840880358204 
1079	 0.422725191019354 
1080	 0.42217138730949 
1081	 0.422361436385056 
1082	 0.422398915943799 
1083	 0.422880287306171 
1084	 0.423757379043173 
1085	 0.423719540948262 
1086	 0.422894891219522 
1087	 0.422749008775659 
1088	 0.422215408524986 
1089	 0.422036204344897 
1090	 0.422649353840834 
1091	 0.422798739081077 
1092	 0.422419706041486 
1093	 0.422743941246441 
1094	 0.423293952593943 
1095	 0.423390801354311 
1096	 0.424166106500882 
1097	 0.424300137256794 
1098	 0.424181883335026 
1099	 0.423524880508802 
1100	 0.423280680137218 
1101	 0.422887517729559 
1102	 0.422801624168804 
1103	 0.423131045471254 
1104	 0.423177473192295 
1105	 0.423238039077179 
1106	 0.422973591585398 
1107	 0.42280625597354 
1108	 0.422729590762706 
1109	 0.422667447347769 
1110	 0.422912713416873 
1111	 0.423145798720402 
1112	 0.423480769480709 
1113	 0.423704322510367 
1114	 0.424299727000717 
1115	 0.424197862288062 
1116	 0.423591078949281 
1117	 0.423374266584487 
1118	 0.422783522088728 
1119	 0.422401494694312 
1120	 0.422320708774969 
1121	 0.422244652044935 
1122	 0.422062002550342 
1123	 0.42215508731764 
1124	 0.422076491848885 
1125	 0.421988214634962 
1126	 0.421845234486615 
1127	 0.421965534637985 
1128	 0.421526601110246 
1129	 0.420734232620488 
1130	 0.420103230718631 
1131	 0.418781321391579 
1132	 0.41803023068346 
1133	 0.41745159654677 
1134	 0.417615359147408 
1135	 0.417320352588876 
1136	 0.41720068172488 
1137	 0.416631651054831 
1138	 0.415669379131131 
1139	 0.414833948042974 
1140	 0.413825293387573 
1141	 0.412965102250837 
1142	 0.412005806732265 
1143	 0.411378728171266 
1144	 0.411167345324688 
1145	 0.41050562782388 
1146	 0.409615591281803 
1147	 0.409047307225826 
1148	 0.408367202226156 
1149	 0.40789372998859 
1150	 0.407207376612603 
1151	 0.406812077740946 
1152	 0.406139933515226 
1153	 0.405050399706293 
1154	 0.404209175794236 
1155	 0.403485949434276 
1156	 0.402786316496727 
1157	 0.401941616559705 
1158	 0.401363034261711 
1159	 0.401044219932892 
1160	 0.400665600427114 
1161	 0.400446718701488 
1162	 0.40010734238664 
1163	 0.399502247257507 
1164	 0.399292971140772 
1165	 0.399035857762602 
1166	 0.398721094852298 
1167	 0.398658753755259 
1168	 0.398964823063607 
1169	 0.39887736316614 
1170	 0.39889673981397 
1171	 0.398552041876922 
1172	 0.397610710299117 
1173	 0.397148268377838 
1174	 0.396629755824849 
1175	 0.396343686181586 
1176	 0.396572929965786 
1177	 0.396526257426848 
1178	 0.396422279827603 
1179	 0.396246778610396 
1180	 0.396194584685793 
1181	 0.396033405739617 
1182	 0.396054397777967 
1183	 0.396382475117928 
1184	 0.396362000458706 
1185	 0.396274772806282 
1186	 0.396103746875846 
1187	 0.395562561945913 
1188	 0.395383040092707 
1189	 0.395386560319378 
1190	 0.395309776291928 
1191	 0.395407452803297 
1192	 0.395417077658503 
1193	 0.395375337986956 
1194	 0.395137609331164 
1195	 0.395209028636048 
1196	 0.395397771311013 
1197	 0.39557550292281 
1198	 0.396129222242709 
1199	 0.396064983270632 
1200	 0.395589676193706 
1201	 0.395391705471762 
1202	 0.394812846091228 
1203	 0.39464755842375 
1204	 0.394777223800288 
1205	 0.395019481263805 
1206	 0.395723308492478 
1207	 0.396005876640478 
1208	 0.396072760846753 
1209	 0.39642090510421 
1210	 0.396517042546301 
1211	 0.396246544353177 
1212	 0.396235588483732 
1213	 0.396323632682162 
1214	 0.396447555077624 
1215	 0.396548666805468 
1216	 0.396726402159094 
1217	 0.397005329876707 
1218	 0.397324461028113 
1219	 0.397718268282034 
1220	 0.398044240359983 
1221	 0.398498123909978 
1222	 0.398828067561908 
1223	 0.398908499559582 
1224	 0.399221897807855 
1225	 0.399435466995275 
1226	 0.399546760976709 
1227	 0.399860124287932 
1228	 0.400296912132469 
1229	 0.400595953981732 
1230	 0.40115956577844 
1231	 0.401213959020696 
1232	 0.400706170787092 
1233	 0.400735569299007 
1234	 0.400656934936824 
1235	 0.400812684876005 
1236	 0.401499192431729 
1237	 0.401948851634267 
1238	 0.40243495867488 
1239	 0.402742237859532 
1240	 0.402911693668298 
1241	 0.402942022589112 
1242	 0.403179992546799 
1243	 0.403292657953624 
1244	 0.403633400832513 
1245	 0.404394795555776 
1246	 0.404686540369826 
1247	 0.404815978841921 
1248	 0.404925168662499 
1249	 0.404790463960154 
1250	 0.40479476847608 
1251	 0.404674855348852 
1252	 0.404814848208828 
1253	 0.405224933718436 
1254	 0.405418612172401 
1255	 0.405589251309151 
1256	 0.406036348505943 
1257	 0.405791743900081 
1258	 0.405921479003448 
1259	 0.406100919530559 
1260	 0.406453362740983 
1261	 0.406452840353903 
1262	 0.406305496268574 
1263	 0.406446698096884 
1264	 0.406562828299619 
1265	 0.406653340131967 
1266	 0.407054709514219 
1267	 0.407190575184731 
1268	 0.407072290232602 
1269	 0.406935801688952 
1270	 0.406774837539882 
1271	 0.406648973409202 
1272	 0.40638730503075 
1273	 0.406044382465467 
1274	 0.406184607806172 
1275	 0.406229907176946 
1276	 0.406320359760425 
1277	 0.406562034330791 
1278	 0.406709186074228 
1279	 0.4068139189373 
1280	 0.40688919035866 
1281	 0.407128900079252 
1282	 0.407047506153599 
1283	 0.406665829019649 
1284	 0.406445430515943 
1285	 0.40596700910979 
1286	 0.40575390579025 
1287	 0.405923317115169 
1288	 0.405817047599684 
1289	 0.405585888098191 
1290	 0.405483731673598 
1291	 0.405291237033779 
1292	 0.405197343322146 
1293	 0.405835442375843 
1294	 0.406177325729944 
1295	 0.406179284643997 
1296	 0.406217578481107 
1297	 0.405781912154995 
1298	 0.404590770820728 
1299	 0.404004915688675 
1300	 0.40332505978811 
1301	 0.402905231036573 
1302	 0.402918645131639 
1303	 0.402628285621728 
1304	 0.402401697328131 
1305	 0.402079688795027 
1306	 0.401588480968919 
1307	 0.401045168460269 
1308	 0.400912548515212 
1309	 0.400393980521406 
1310	 0.399821360254883 
1311	 0.399445324239086 
1312	 0.398563231216166 
1313	 0.397779682579352 
1314	 0.397104114350294 
1315	 0.396468096090565 
1316	 0.395804860811372 
1317	 0.395239959177172 
1318	 0.394572399175598 
1319	 0.393807606900453 
1320	 0.393179193837301 
1321	 0.392666888266599 
1322	 0.39206263956216 
1323	 0.391476468971134 
1324	 0.390797271169489 
1325	 0.390075639958661 
1326	 0.389285678889312 
1327	 0.388345503128498 
1328	 0.387159885853701 
1329	 0.385717853965134 
1330	 0.384393011640887 
1331	 0.383354912316109 
1332	 0.382321248532657 
1333	 0.381274287472177 
1334	 0.380376608184596 
1335	 0.379429160994546 
1336	 0.37835670198109 
1337	 0.377444635048434 
1338	 0.376796224310648 
1339	 0.375795607529169 
1340	 0.374458631864782 
1341	 0.373497817138388 
1342	 0.372773649199823 
1343	 0.371798578294277 
1344	 0.370938606233175 
1345	 0.369936044929682 
1346	 0.368566302852277 
1347	 0.367067759009714 
1348	 0.36608798603518 
1349	 0.365356644054128 
1350	 0.364604004545222 
1351	 0.363726960172345 
1352	 0.362767580859119 
1353	 0.361583458354103 
1354	 0.360516652501769 
1355	 0.359387034842244 
1356	 0.358492107973756 
1357	 0.357856013693126 
1358	 0.356887157282711 
1359	 0.355961282433534 
1360	 0.354870322102941 
1361	 0.353389206161954 
1362	 0.352053316845036 
1363	 0.350717742749678 
1364	 0.349537862908149 
1365	 0.348389715925346 
1366	 0.347143045226366 
1367	 0.345606254967113 
1368	 0.344029730675373 
1369	 0.34256975749271 
1370	 0.34120870575088 
1371	 0.340053584252901 
1372	 0.338525816194862 
1373	 0.336371590415192 
1374	 0.33398035475547 
1375	 0.331800071622141 
1376	 0.329549107206593 
1377	 0.327275137642818 
1378	 0.325359793180128 
1379	 0.322843631853585 
1380	 0.32002820272813 
1381	 0.316693947037937 
1382	 0.31281935482271 
1383	 0.308907996612697 
1384	 0.304392650795632 
1385	 0.300403415963402 
1386	 0.296553797094458 
1387	 0.291973519149368 
1388	 0.287270436202614 
1389	 0.282461309402739 
1390	 0.27762190986135 
1391	 0.272906494104392 
1392	 0.267842379861756 
1393	 0.262548878318928 
1394	 0.257256179844084 
1395	 0.251772542779032 
1396	 0.246663530165143 
1397	 0.24204939934192 
1398	 0.237122912207242 
1399	 0.232153930594646 
1400	 0.227303960125886 
1401	 0.222298967505202 
1402	 0.217553538773605 
1403	 0.213051792949057 
1404	 0.208450783143351 
1405	 0.203691070040647 
1406	 0.199455913838663 
1407	 0.195420524019928 
1408	 0.191638334417351 
1409	 0.187942625488396 
1410	 0.18488955481584 
1411	 0.181761798701983 
1412	 0.178624816701936 
1413	 0.176427706963599 
1414	 0.174169925910954 
1415	 0.171942521948866 
1416	 0.169863731001444 
1417	 0.167413719058333 
1418	 0.165202917051803 
1419	 0.163197358273146 
1420	 0.161270493248566 
1421	 0.159688995802729 
1422	 0.158495409894165 
1423	 0.157191486236096 
1424	 0.156047330680483 
1425	 0.154806201521218 
1426	 0.153614999644633 
1427	 0.152318908655934 
1428	 0.150879359025909 
1429	 0.14981602536069 
1430	 0.148725143235392 
1431	 0.14775536436055 
1432	 0.147086800726718 
1433	 0.146385426269681 
1434	 0.145731054489283 
1435	 0.145213309605603 
1436	 0.145046433514878 
1437	 0.144855805918942 
1438	 0.144373168118811 
1439	 0.144116005489838 
1440	 0.143731820952214 
1441	 0.143457769058594 
1442	 0.143532663369471 
1443	 0.143610149168682 
1444	 0.143471658875671 
1445	 0.143175408090251 
1446	 0.143052741221352 
1447	 0.142743469219551 
1448	 0.142661956885972 
1449	 0.142943265907504 
1450	 0.142955803194526 
1451	 0.142840104937692 
1452	 0.142927128243726 
1453	 0.143017043441718 
1454	 0.143170723907383 
1455	 0.143529064681256 
1456	 0.143729154743937 
1457	 0.143955324775178 
1458	 0.143879661190634 
1459	 0.144030725457299 
1460	 0.144141772403482 
1461	 0.144254845135391 
1462	 0.144401866043349 
1463	 0.144723108890845 
1464	 0.145126706212653 
1465	 0.14529170914414 
1466	 0.145980611638696 
1467	 0.146379973630932 
1468	 0.146644804659264 
1469	 0.147520357876512 
1470	 0.148074299715041 
1471	 0.148655854306373 
1472	 0.149284141759525 
1473	 0.149927474850531 
1474	 0.150367354649193 
1475	 0.15118753194717 
1476	 0.152373222574303 
1477	 0.153247126219656 
1478	 0.154082151877399 
1479	 0.154973194880634 
1480	 0.15569787349097 
1481	 0.156624254831214 
1482	 0.157843109964442 
1483	 0.158974779605949 
1484	 0.160031127183067 
1485	 0.161025810882454 
1486	 0.162065857641874 
1487	 0.162944133362869 
1488	 0.163791966994216 
1489	 0.165069202961063 
1490	 0.166250154492961 
1491	 0.167263951773949 
1492	 0.168349229679062 
1493	 0.169728557333611 
1494	 0.171003269771225 
1495	 0.172395134863693 
1496	 0.173756006099153 
1497	 0.174498515358235 
1498	 0.175504503644466 
1499	 0.176590411147892 
1500	 0.177398480191424 
1501	 0.178686346083904 
1502	 0.179933552484107 
1503	 0.181218956280706 
1504	 0.182390587549359 
1505	 0.183581463569144 
1506	 0.184864656252703 
1507	 0.186186753630165 
1508	 0.18731869106059 
1509	 0.188627443922746 
1510	 0.189670207561134 
1511	 0.190218440900351 
1512	 0.191197397230292 
1513	 0.192243013998055 
1514	 0.193356144648747 
1515	 0.19459747462027 
1516	 0.195859026137845 
1517	 0.197445575172812 
1518	 0.198733918287381 
1519	 0.199855446182703 
1520	 0.201049401827943 
1521	 0.202292833886123 
1522	 0.203297052082535 
1523	 0.204675945896854 
1524	 0.205914407706674 
1525	 0.206810985997798 
1526	 0.207588724173028 
1527	 0.208122405800484 
1528	 0.209236069267721 
1529	 0.210611940526188 
1530	 0.211813149312493 
1531	 0.213263075311708 
1532	 0.214528925117542 
1533	 0.215428539100035 
1534	 0.2166534106718 
1535	 0.217796534206826 
1536	 0.218923939125237 
1537	 0.219826140726571 
1538	 0.220607266184207 
1539	 0.221665851846823 
1540	 0.222808391770959 
1541	 0.22385405434403 
1542	 0.225114040611091 
1543	 0.225957731409978 
1544	 0.22623305270721 
1545	 0.227036862727046 
1546	 0.228043790714262 
1547	 0.229077368869667 
1548	 0.230499306781319 
1549	 0.231459892010859 
1550	 0.232071647323878 
1551	 0.232831487160001 
1552	 0.233383382853501 
1553	 0.234175428232786 
1554	 0.235239695059968 
1555	 0.236237696945153 
1556	 0.237189941552613 
1557	 0.238316594977691 
1558	 0.239589707735559 
1559	 0.240385673044277 
1560	 0.241028155266183 
1561	 0.241720518254341 
1562	 0.242307587142067 
1563	 0.243090086923896 
1564	 0.244238311076827 
1565	 0.24521206750465 
1566	 0.245867773090944 
1567	 0.246577896417243 
1568	 0.247286122189383 
1569	 0.247867325057556 
1570	 0.248831549183084 
1571	 0.249894626836792 
1572	 0.250387267254721 
1573	 0.250965693997976 
1574	 0.251552831052295 
1575	 0.251724025600508 
1576	 0.252290920480591 
1577	 0.253224672698504 
1578	 0.253922550808332 
1579	 0.254574363802714 
1580	 0.255346610017339 
1581	 0.25620703751256 
1582	 0.2568909178722 
1583	 0.257606108154612 
1584	 0.258221358248698 
1585	 0.258443131995578 
1586	 0.25910218489814 
1587	 0.260061793258164 
1588	 0.260773177009967 
1589	 0.261724730937663 
1590	 0.262359785706637 
1591	 0.262693180172329 
1592	 0.263064139793415 
1593	 0.263031155846376 
1594	 0.263625601521984 
1595	 0.264492821052503 
1596	 0.265295138263849 
1597	 0.26670746070422 
1598	 0.267597821535816 
1599	 0.268074357955301 
1600	 0.268721642602086 
1601	 0.269279664478583 
1602	 0.269880071277602 
1603	 0.270563588912368 
1604	 0.27119162353515 
1605	 0.27171810333713 
1606	 0.272259301972701 
1607	 0.272991694972796 
1608	 0.273390156100193 
1609	 0.273469972984535 
1610	 0.273806478444885 
1611	 0.273907827271161 
1612	 0.274166251071246 
1613	 0.274913703191123 
1614	 0.275423239182578 
1615	 0.276098481968914 
1616	 0.276784970312411 
1617	 0.276685237633669 
1618	 0.276808975625858 
1619	 0.276765485187361 
1620	 0.276558531352546 
1621	 0.277492373493842 
1622	 0.278601521870632 
1623	 0.279644829851564 
1624	 0.280710407922966 
1625	 0.281519781777042 
1626	 0.281893699613604 
1627	 0.28199184286375 
1628	 0.281618215068797 
1629	 0.281827257740771 
1630	 0.281885713736939 
1631	 0.282158797356325 
1632	 0.283002966740243 
1633	 0.283390573501112 
1634	 0.283334444436764 
1635	 0.283843663627223 
1636	 0.284715853329324 
1637	 0.285236018734075 
1638	 0.28588867679434 
1639	 0.286250009350864 
1640	 0.286399427600271 
1641	 0.286279188612759 
1642	 0.285753693879768 
1643	 0.285702996579173 
1644	 0.285477134311245 
1645	 0.285617066924132 
1646	 0.286470328553519 
1647	 0.286749749679399 
1648	 0.2868591938282 
1649	 0.286837338215538 
1650	 0.28663138095657 
1651	 0.286339716778317 
1652	 0.285807105037861 
1653	 0.285403504536592 
1654	 0.284682741115345 
1655	 0.284597933979017 
1656	 0.285000301107343 
1657	 0.285231665517264 
1658	 0.285870577485615 
1659	 0.286135851484562 
1660	 0.286215893138517 
1661	 0.28612910806745 
1662	 0.285912086124686 
1663	 0.285601436759656 
1664	 0.284799204004605 
1665	 0.284537883941665 
1666	 0.284588783809377 
1667	 0.284481183866567 
1668	 0.284471649085357 
1669	 0.284564292104537 
1670	 0.284516039086801 
1671	 0.284669474907716 
1672	 0.285305118232724 
1673	 0.285592168209062 
1674	 0.286053677057934 
1675	 0.285883465296509 
1676	 0.285103747484531 
1677	 0.284557599834735 
1678	 0.283390834662032 
1679	 0.282818518826143 
1680	 0.282778904403746 
1681	 0.282618159494681 
1682	 0.282866654936352 
1683	 0.282634691166104 
1684	 0.281847242334032 
1685	 0.281586947569486 
1686	 0.281401296633327 
1687	 0.281184370993882 
1688	 0.281545754667212 
1689	 0.281444356557045 
1690	 0.280711574221846 
1691	 0.280399469648149 
1692	 0.280459725737389 
1693	 0.280047404091874 
1694	 0.279380256827087 
1695	 0.278956336399188 
1696	 0.278484866414813 
1697	 0.277761073803021 
1698	 0.277044677689412 
1699	 0.276454313715188 
1700	 0.275338677440477 
1701	 0.27473598011356 
1702	 0.275176768273882 
1703	 0.274733496195994 
1704	 0.273572468858702 
1705	 0.273019166337801 
1706	 0.272042648118222 
1707	 0.27166818347818 
1708	 0.272924121241211 
1709	 0.27276916959422 
1710	 0.271486862377089 
1711	 0.271024211149395 
1712	 0.270232982785304 
1713	 0.269612003460687 
1714	 0.270109322556415 
1715	 0.269842506079159 
1716	 0.268567218812089 
1717	 0.267921536496056 
1718	 0.267230719945456 
1719	 0.266912874587944 
1720	 0.267123901640395 
1721	 0.267369558339018 
1722	 0.268389177700509 
1723	 0.26853467771966 
1724	 0.268326702087764 
1725	 0.267893617066497 
1726	 0.266346587694142 
1727	 0.265499685180631 
1728	 0.26475346420543 
1729	 0.264455532197946 
1730	 0.264999023377399 
1731	 0.265054675494703 
1732	 0.265145902359098 
1733	 0.265226819822305 
1734	 0.265363065827035 
1735	 0.264949228388727 
1736	 0.264024421323411 
1737	 0.263502139772104 
1738	 0.262200206440496 
1739	 0.261882466945592 
1740	 0.263146934409285 
1741	 0.263343627968371 
1742	 0.263720176305462 
1743	 0.263349406205259 
1744	 0.261499631657068 
1745	 0.26045234969411 
1746	 0.259299387928427 
1747	 0.258647824224367 
1748	 0.258846317052047 
1749	 0.258630672281722 
1750	 0.258612129623746 
1751	 0.258071522978045 
1752	 0.256796523517687 
1753	 0.256161306162159 
1754	 0.255942212928246 
1755	 0.25522862383446 
1756	 0.254380039401739 
1757	 0.253750468263853 
1758	 0.252517947996322 
1759	 0.251931971459988 
1760	 0.252297931976627 
1761	 0.25209795831278 
1762	 0.251819917758182 
1763	 0.251512280295181 
1764	 0.250972122977847 
1765	 0.250538547881607 
1766	 0.249955305498388 
1767	 0.249662978347978 
1768	 0.249651383924083 
1769	 0.249604258799987 
1770	 0.249907292630172 
1771	 0.249875379372374 
1772	 0.249702189442786 
1773	 0.24912541817507 
1774	 0.247797283589878 
1775	 0.247365195259405 
1776	 0.246927670058004 
1777	 0.247184822524015 
1778	 0.248962111364521 
1779	 0.249249884201758 
1780	 0.249307559442763 
1781	 0.248855463321617 
1782	 0.246639309133356 
1783	 0.246159836070607 
1784	 0.246418713325281 
1785	 0.246399317205846 
1786	 0.247409723030543 
1787	 0.247783453878267 
1788	 0.247459959267375 
1789	 0.247294303952126 
1790	 0.247569419152254 
1791	 0.246910256003855 
1792	 0.245145086137667 
1793	 0.2448268277296 
1794	 0.244524545338265 
1795	 0.24444159119561 
1796	 0.245819917949853 
1797	 0.246033172931423 
1798	 0.245217160161453 
1799	 0.245554256089349 
1800	 0.24598099532196 
1801	 0.248994672777363 
1802	 0.248653176896634 
1803	 0.247840996599694 
1804	 0.244922336256745 
1805	 0.244617703665556 
1806	 0.24498877519855 
1807	 0.244971938820031 
1808	 0.245430824254015 
1809	 0.247351235156228 
1810	 0.246047454612974 
1811	 0.246421856807807 
1812	 0.247133499816509 
1813	 0.245882162604733 
1814	 0.245781443304393 
1815	 0.24572552359256 
1816	 0.246577701385878 
1817	 0.249023115318691 
1818	 0.249686629076988 
1819	 0.250797612717443 
1820	 0.250754092122949 
1821	 0.247462436323607 
1822	 0.246990584921195 
1823	 0.246736884324711 
1824	 0.246655887291887 
1825	 0.247573894047698 
1826	 0.250119317870606 
1827	 0.250973066255819 
1828	 0.252273362543912 
1829	 0.251849514320884 
1830	 0.251134464788641 
1831	 0.251992392826759 
1832	 0.251775101422669 
1833	 0.251133628944251 
1834	 0.250122923464283 
1835	 0.247554154919169 
1836	 0.247173588409637 
1837	 0.246760249160324 
1838	 0.248343535092364 
1839	 0.251025312252862 
1840	 0.2518345775633 
1841	 0.25121465144133 
1842	 0.248746468654669 
1843	 0.246302846568679 
1844	 0.243415838207732 
1845	 0.241777807281704 
1846	 0.24166117064573 
1847	 0.240357076724155 
1848	 0.238760017247169 
1849	 0.23826221852905 
1850	 0.236730492659116 
1851	 0.23405732237421 
1852	 0.232413345732576 
1853	 0.231398485670915 
1854	 0.230178168747312 
1855	 0.228101496445387 
1856	 0.227112352283074 
1857	 0.227183339878545 
1858	 0.226289114611346 
1859	 0.226348005525698 
1860	 0.226478232667931 
1861	 0.22525271089589 
1862	 0.223456123567107 
1863	 0.218076033593131 
1864	 0.215007625841857 
1865	 0.21322839697535 
1866	 0.209524853480323 
1867	 0.206423661344127 
1868	 0.204695004142642 
1869	 0.201049439226888 
1870	 0.195508425236344 
1871	 0.191775021577243 
1872	 0.187530030832899 
1873	 0.182673236142191 
1874	 0.179346595140104 
1875	 0.175110638911555 
1876	 0.171082556578332 
1877	 0.167504405052877 
1878	 0.162870152688198 
1879	 0.157141715625242 
1880	 0.152214854654045 
1881	 0.14790243069187 
1882	 0.142944428220241 
1883	 0.139382344071488 
1884	 0.135630428365436 
1885	 0.131086152847272 
1886	 0.127510653821453 
1887	 0.12313927365223 
1888	 0.118192261429108 
1889	 0.113671848427653 
1890	 0.109061039173198 
1891	 0.103710192313867 
1892	 0.100253607019211 
1893	 9.83949069196443E-02 
1894	 9.56349895520481E-02 
1895	 9.46159141477484E-02 
1896	 9.35921976059196E-02 
1897	 9.02858926672527E-02 
1898	 0.086978653269157 
1899	 8.46153942077453E-02 
1900	 8.15348297769443E-02 
1901	 7.99380120277525E-02 
1902	 7.96379212406945E-02 
1903	 8.05173185432787E-02 
1904	 8.05095389401574E-02 
1905	 7.82999578997896E-02 
1906	 0.07563072418704 
1907	 7.27461170632786E-02 
1908	 7.11307843728583E-02 
1909	 0.071265540854515 
1910	 7.14761512928598E-02 
1911	 0.073833047984716 
1912	 7.42178533397011E-02 
1913	 7.38260779270923E-02 
1914	 7.35282316263107E-02 
1915	 0.073948683996209 
1916	 7.35380885225062E-02 
1917	 0.073561195844216 
1918	 7.27725691829216E-02 
1919	 7.06170946411345E-02 
1920	 0.069319797243333 
1921	 6.88376762716826E-02 
1922	 6.97405043917759E-02 
1923	 6.98874785978772E-02 
1924	 7.01964870586483E-02 
1925	 7.05476665444269E-02 
1926	 7.05002463924226E-02 
1927	 6.94064553830894E-02 
1928	 7.00462125171744E-02 
1929	 0.070876070671495 
1930	 7.11225105622781E-02 
1931	 7.28739066913878E-02 
1932	 7.29297187343511E-02 
1933	 7.08556813474593E-02 
1934	 6.97164286229375E-02 
1935	 6.72874254769474E-02 
1936	 6.64232049564651E-02 
1937	 6.58270887477893E-02 
1938	 6.75481991630217E-02 
1939	 6.92609356052551E-02 
1940	 7.10952054027182E-02 
1941	 7.13531949203731E-02 
1942	 7.04829549735632E-02 
1943	 6.93061140429281E-02 
1944	 6.78841649524564E-02 
1945	 0.067595735740465 
1946	 0.06837112549224 
1947	 6.88355674861832E-02 
1948	 6.96899145393562E-02 
1949	 7.08662694733409E-02 
1950	 7.12569220209324E-02 
1951	 7.17226714195559E-02 
1952	 7.05670592671097E-02 
1953	 6.91424756804769E-02 
1954	 7.01734601024488E-02 
1955	 7.01269285133863E-02 
1956	 7.03369058680233E-02 
1957	 7.21370720839064E-02 
1958	 7.26907591655261E-02 
1959	 7.20622651412013E-02 
1960	 7.21683549355175E-02 
1961	 7.25815066544239E-02 
1962	 7.26453905485692E-02 
1963	 7.35938949964714E-02 
1964	 7.22296219433919E-02 
1965	 7.20637958934588E-02 
1966	 7.38709759954118E-02 
1967	 7.39821436310656E-02 
1968	 7.57373183286832E-02 
1969	 0.07621993156741 
1970	 7.54821792807988E-02 
1971	 7.54745010411987E-02 
1972	 7.49441887556586E-02 
1973	 0.07531942857591 
1974	 7.66535385754572E-02 
1975	 0.078036045323474 
1976	 7.88658944107366E-02 
1977	 8.03343631679429E-02 
1978	 8.14126380363162E-02 
1979	 8.14069136408326E-02 
1980	 0.081891504440621 
1981	 8.24217089896058E-02 
1982	 8.29843546873997E-02 
1983	 8.41376324291993E-02 
1984	 8.45667478086154E-02 
1985	 8.51233573572429E-02 
1986	 8.44578195540433E-02 
1987	 8.27852790438656E-02 
1988	 0.080008259929219 
1989	 7.74918918591056E-02 
1990	 7.69474773517916E-02 
1991	 7.80063827782543E-02 
1992	 8.01701682876943E-02 
1993	 8.20544690945584E-02 
1994	 8.57168829398497E-02 
1995	 8.71203014487937E-02 
1996	 8.77916967212856E-02 
1997	 8.81160447984074E-02 
1998	 8.69663956299943E-02 
1999	 8.61026166358427E-02 
2000	 8.46730416083861E-02 
2001	 8.38059390635171E-02 
2002	 8.31977644689475E-02 
2003	 0.083260973069815 
2004	 8.46093687219682E-02 
2005	 8.47798028922926E-02 
2006	 8.58768382482322E-02 
2007	 8.75908249678544E-02 
2008	 8.93084685939244E-02 
2009	 9.20389299410594E-02 
2010	 9.32717618843046E-02 
2011	 9.29600226670371E-02 
2012	 9.33730204465932E-02 
2013	 9.18860348139336E-02 
2014	 9.41043166528241E-02 
2015	 9.74068670113116E-02 
2016	 0.101849504798526 
2017	 0.103672740481212 
2018	 0.103251560659248 
2019	 0.102717618257839 
2020	 9.80046089738418E-02 
2021	 9.68537631458258E-02 
2022	 9.79366938147389E-02 
2023	 9.76306306964482E-02 
2024	 9.73618143776826E-02 
2025	 9.77669130855411E-02 
2026	 0.097812518050286 
2027	 9.82622246839072E-02 
2028	 0.100245801775514 
2029	 0.100539067875537 
2030	 0.100342832603316 
2031	 0.102183386267003 
2032	 0.104305641896749 
2033	 0.108141460525586 
2034	 0.109763768767026 
2035	 0.111595972468116 
2036	 0.111682105328525 
2037	 0.108805500433337 
2038	 0.107978054724364 
2039	 0.106882462222635 
2040	 0.10714854064807 
2041	 0.109865666347596 
2042	 0.110444029379022 
2043	 0.109934752634848 
2044	 0.110520656800868 
2045	 0.110809115345033 
2046	 0.109834347831177 
2047	 0.11021668003548 
2048	 0.112204468572992 
2049	 0.112754811959879 
2050	 0.112737164031721 
2051	 0.112479214386422 
2052	 0.111212203306123 
2053	 0.111207229457834 
2054	 0.111395804098075 
2055	 0.112528940981737 
2056	 0.116026604113991 
2057	 0.117161379425781 
2058	 0.118965559770709 
2059	 0.118313202972638 
2060	 0.118234444949895 
2061	 0.117093800591369 
2062	 0.116558030211869 
2063	 0.115677392726675 
2064	 0.115936687640967 
2065	 0.116558805186282 
2066	 0.116859265802696 
2067	 0.117704658993637 
2068	 0.118639104975318 
2069	 0.119977625361015 
2070	 0.120941693469199 
2071	 0.121482738259559 
2072	 0.123267672724139 
2073	 0.125162578802157 
2074	 0.123842756898006 
2075	 0.123283531211633 
2076	 0.122663191571012 
2077	 0.121526448532206 
2078	 0.118698833134172 
2079	 0.117852606708502 
2080	 0.117877498887737 
2081	 0.117755793798661 
2082	 0.118972284348325 
2083	 0.118772578773141 
2084	 0.11681579694272 
2085	 0.116785457531256 
2086	 0.115267223093435 
2087	 0.117609713865128 
2088	 0.124283607794276 
2089	 0.126701776133579 
2090	 0.129034717500491 
2091	 0.132054566087423 
2092	 0.132856604032348 
2093	 0.13073069174907 
2094	 0.130242360587957 
2095	 0.129738137151522 
2096	 0.128862404089199 
2097	 0.126007706489689 
2098	 0.126143715935405 
2099	 0.127384806619565 
2100	 0.129256232088219 
2101	 0.136706028487602 
2102	 0.139250758448 
2103	 0.138459525721276 
2104	 0.138549466380135 
2105	 0.137889106614201 
2106	 0.134217391201278 
2107	 0.132208831778247 
2108	 0.129595433962411 
2109	 0.130629492476479 
2110	 0.133502909656145 
2111	 0.135584511254207 
2112	 0.143732670306519 
2113	 0.144857982687758 
2114	 0.139216094732458 
2115	 0.137087637486901 
2116	 0.132707904155342 
2117	 0.130775407067095 
2118	 0.130160175124355 
2119	 0.132484197890936 
2120	 0.135993748160849 
2121	 0.136729964936926 
2122	 0.138646626097314 
2123	 0.14225616339163 
2124	 0.143027855534775 
2125	 0.141895425041958 
2126	 0.141584243013667 
2127	 0.139688890192126 
2128	 0.139556969275653 
2129	 0.141119555465402 
2130	 0.141785285924719 
2131	 0.141666036078525 
2132	 0.142887682735895 
2133	 0.145360391039316 
2134	 0.146101512560687 
2135	 0.148068896811505 
2136	 0.148180777830018 
2137	 0.144411332206411 
2138	 0.142950742731196 
2139	 0.142278743838335 
2140	 0.14261905009026 
2141	 0.141187916065568 
2142	 0.13874661406203 
2143	 0.139673839118336 
2144	 0.140347719027198 
2145	 0.142676363075172 
2146	 0.151140585971414 
2147	 0.153297265189865 
2148	 0.152315576439339 
2149	 0.151558270574536 
2150	 0.146653936063878 
2151	 0.145864247861121 
2152	 0.147616351416008 
2153	 0.148256500792059 
2154	 0.15103242087329 
2155	 0.151791078550442 
2156	 0.15207739022672 
2157	 0.151942704489133 
2158	 0.152521052331187 
2159	 0.153697833516183 
2160	 0.154332172546932 
2161	 0.155825642903256 
2162	 0.154512613275516 
2163	 0.15098441210461 
2164	 0.149987457284914 
2165	 0.147115956065478 
2166	 0.147619298444536 
2167	 0.152446672650406 
2168	 0.154262218370516 
2169	 0.156533978531749 
2170	 0.157091408272864 
2171	 0.155684020817276 
2172	 0.155073124501618 
2173	 0.154216935110225 
2174	 0.152948940210851 
2175	 0.151176815728297 
2176	 0.149683433727546 
2177	 0.150092360656183 
2178	 0.151905152727962 
2179	 0.15148397865517 
2180	 0.151115235815188 
2181	 0.151731535708007 
2182	 0.15076483970151 
2183	 0.151208430996655 
2184	 0.154550076426991 
2185	 0.155672586957352 
2186	 0.156578168583745 
2187	 0.155412988418809 
2188	 0.15087165123241 
2189	 0.150549748224296 
2190	 0.150249944993897 
2191	 0.15093580467427 
2192	 0.155801702560579 
2193	 0.158936111329166 
2194	 0.162635960129146 
2195	 0.162524507005812 
2196	 0.164666789469216 
2197	 0.166545655604088 
2198	 0.167099058096684 
2199	 0.166580770238381 
2200	 0.166811376542211 
2201	 0.16698774769246 
2202	 0.166441794569971 
2203	 0.166261769479343 
2204	 0.164513988262548 
2205	 0.159289410775855 
2206	 0.158111144194274 
2207	 0.158505957037828 
2208	 0.158309567532111 
2209	 0.160928938183677 
2210	 0.161534405346179 
2211	 0.159718267632054 
2212	 0.159449187721099 
2213	 0.159935807566975 
2214	 0.160268323221566 
2215	 0.161944638511503 
2216	 0.161993750021162 
2217	 0.161690183152552 
2218	 0.159007374936063 
2219	 0.157761903215772 
2220	 0.157161455381172 
2221	 0.157270920663131 
2222	 0.159524600703352 
2223	 0.160012534145275 
2224	 0.160154431659892 
2225	 0.159446383611328 
2226	 0.157772069759942 
2227	 0.156638398862935 
2228	 0.153593348807861 
2229	 0.154032951328884 
2230	 0.15746484337318 
2231	 0.158502756992605 
2232	 0.16048445087131 
2233	 0.161974582464278 
2234	 0.162029713366018 
2235	 0.162317792808084 
2236	 0.165884579660245 
2237	 0.164204052930952 
2238	 0.155384955165943 
2239	 0.151866544457726 
2240	 0.147473807534372 
2241	 0.144866084438615 
2242	 0.148552854742684 
2243	 0.152235449234882 
2244	 0.153591656277833 
2245	 0.155440791667275 
2246	 0.154221523293418 
2247	 0.153532003241672 
2248	 0.15156343764458 
2249	 0.146556935578287 
2250	 0.145483433854927 
2251	 0.146120543078129 
2252	 0.14520986596149 
2253	 0.147030179986786 
2254	 0.146191720427007 
2255	 0.141916978854818 
2256	 0.140345869540046 
2257	 0.139369759143375 
2258	 0.137528869503139 
2259	 0.135346140696196 
2260	 0.134134193017449 
2261	 0.132192672892734 
2262	 0.132826203236445 
2263	 0.137122106310282 
2264	 0.138786503677709 
2265	 0.140157040451107 
2266	 0.14247102336505 
2267	 0.143904915229338 
2268	 0.1455649557802 
2269	 0.151485183960059 
2270	 0.149558411909346 
2271	 0.142263332237443 
2272	 0.137192537128237 
2273	 0.133232662571541 
2274	 0.134232650947451 
2275	 0.13699405724395 
2276	 0.139668921718122 
2277	 0.139723158833033 
2278	 0.134912495325482 
2279	 0.133612196165343 
2280	 0.132478180505098 
2281	 0.133850593213014 
2282	 0.138799477276529 
2283	 0.142558287890178 
2284	 0.150292495688932 
2285	 0.15057335478732 
2286	 0.147042554439465 
2287	 0.140360289326365 
2288	 0.124256185656051 
2289	 0.11683296971335 
2290	 0.109720054552425 
2291	 0.10770702081587 
2292	 0.113063391734437 
2293	 0.116672875649595 
2294	 0.125840290120299 
2295	 0.127923320075065 
2296	 0.126151962340799 
2297	 0.125694189150005 
2298	 0.117512945521131 
2299	 0.115679619592647 
2300	 0.120394287319438 
2301	 0.122864398029414 
2302	 0.121765727780994 
2303	 0.127732275548514 
2304	 0.125872495580709 
2305	 0.123710159447476 
2306	 0.125473526604418 
2307	 0.127205925004259 
2308	 0.133852458391643 
2309	 0.135698353146135 
2310	 0.135848487959877 
2311	 0.133780805364811 
2312	 0.12509566140815 
2313	 0.121958243318841 
2314	 0.120791198492205 
2315	 0.118176204211321 
2316	 0.115528216945019 
2317	 0.114620310335841 
2318	 0.110780481183697 
2319	 0.103415518269118 
2320	 9.92415210997724E-02 
2321	 9.59296960808058E-02 
2322	 9.41462796461788E-02 
2323	 9.18624446018194E-02 
2324	 9.54467871494739E-02 
2325	 0.10280109871267 
2326	 0.10978946980201 
2327	 0.125729105653742 
2328	 0.130509333698699 
2329	 0.129949725461619 
2330	 0.129809194118737 
2331	 0.1236746568794 
2332	 0.119797457794117 
2333	 0.114238420686782 
2334	 0.11098705967967 
2335	 0.104732056139361 
2336	 0.105540229645213 
2337	 0.117830579765753 
2338	 0.121790655255821 
2339	 0.127376582272975 
2340	 0.128264028798144 
2341	 0.122527310123376 
2342	 0.114455799692708 
2343	 0.105882424954283 
2344	 0.101834715535557 
2345	 9.45046216942123E-02 
2346	 9.07992406991359E-02 
2347	 9.51010401101491E-02 
2348	 9.63708486271039E-02 
2349	 0.100106718955562 
2350	 0.101008574435149 
2351	 0.100342975999349 
2352	 9.91655144232978E-02 
2353	 0.102188491164632 
2354	 0.108032585661034 
2355	 0.106539403273507 
2356	 0.10497641518586 
2357	 0.097595034120295 
2358	 8.83873116784885E-02 
2359	 8.52990445492718E-02 
2360	 8.08800837464567E-02 
2361	 8.22979827305601E-02 
2362	 8.47139661096713E-02 
2363	 8.67463050665645E-02 
2364	 9.90376424320438E-02 
2365	 0.103125705476216 
2366	 0.102816375778661 
2367	 0.100732872490298 
2368	 8.67024998104449E-02 
2369	 0.070737517568798 
2370	 6.44138559969078E-02 
2371	 6.90461715898271E-02 
2372	 7.67034883788339E-02 
2373	 0.093981225196903 
2374	 0.103859570894869 
2375	 0.106448607943716 
2376	 0.10937598971683 
2377	 0.102412106596717 
2378	 0.104872965494376 
2379	 0.107384566731534 
2380	 0.107739934632491 
2381	 0.112245709629165 
2382	 0.10988857027929 
2383	 0.105222835011011 
2384	 9.28463669759888E-02 
2385	 8.48052127131304E-02 
2386	 7.95397483981317E-02 
2387	 6.86627025472451E-02 
2388	 5.27472943924212E-02 
2389	 5.31203611884362E-02 
2390	 0.049787929271749 
2391	 0.060003423190738 
2392	 0.099403095620428 
2393	 0.110102220460291 
2394	 0.115534822729195 
2395	 0.113628280885496 
2396	 0.087682460952649 
2397	 8.22256070978863E-02 
2398	 8.12804151530041E-02 
2399	 8.73935635440644E-02 
2400	 0.112172843042312 
2401	 0.111700344306475 
2402	 0.100490747865648 
2403	 9.80076808753774E-02 
2404	 8.46088936284936E-02 
2405	 0.087597418948586 
2406	 0.106963228122788 
2407	 0.110483194014865 
2408	 0.111966118166004 
2409	 0.10930949972273 
2410	 9.76062563258473E-02 
2411	 9.11035669434073E-02 
2412	 8.96409398266922E-02 
2413	 8.14581566653785E-02 
2414	 6.24131312883844E-02 
2415	 6.39081577881471E-02 
2416	 7.23333042795642E-02 
2417	 6.98751231650633E-02 
2418	 7.99760365292033E-02 
2419	 8.59690916398661E-02 
2420	 0.083208035872378 
2421	 8.39442905963487E-02 
2422	 9.01098344022274E-02 
2423	 8.49002016195141E-02 
2424	 6.09717658292491E-02 
2425	 5.67855370551736E-02 
2426	 5.59044240585199E-02 
2427	 5.34285866016814E-02 
2428	 0.068879954113604 
2429	 7.63970984609773E-02 
2430	 8.62027712346379E-02 
2431	 0.094620083560426 
2432	 9.91792276819424E-02 
2433	 9.71462324697439E-02 
2434	 7.67073294206678E-02 
2435	 7.11053940693791E-02 
2436	 6.73494174474224E-02 
2437	 0.065657255874119 
2438	 8.59154491182265E-02 
2439	 9.50771156298068E-02 
2440	 0.100265692071203 
2441	 0.10974894906273 
2442	 0.105556475327764 
2443	 9.54221083579422E-02 
2444	 9.54308925073987E-02 
2445	 8.95335624004117E-02 
2446	 9.05104668739469E-02 
2447	 7.43945912459472E-02 
2448	 3.59583727917269E-02 
2449	 2.74767730188407E-03 
2450	-1.72180928591558E-02 
2451	-1.93667940689614E-02 
2452	 1.78183062259751E-02 
2453	 6.79655028047098E-02 
2454	 0.106762905691447 
2455	 0.120745682420343 
2456	 0.127041920192086 
2457	 0.112043156299739 
2458	 7.97784761727782E-02 
2459	 8.83991682934209E-02 
2460	 7.06601671240628E-02 
2461	 5.46628015728197E-02 
2462	 6.40813346295942E-02 
2463	 4.26240890668723E-02 
2464	 5.19114763936074E-02 
2465	 5.88176852525311E-02 
2466	 6.86342523068084E-02 
2467	 0.087107047336799 
2468	 8.06228411438868E-02 
2469	 7.60582655143076E-02 
2470	 0.059649908911824 
2471	 5.37541462761137E-02 
2472	 5.67221793375382E-02 
2473	 7.35715015572674E-02 
2474	 9.69448325625912E-02 
2475	 9.25228775143615E-02 
2476	 9.63983430953502E-02 
2477	 9.88657872721928E-02 
2478	 9.08367310795042E-02 
2479	 7.72106491039411E-02 
2480	 7.66839488437201E-02 
2481	 0.10900383262637 
2482	 0.118360192558047 
2483	 0.145475261151675 
2484	 0.183337518310661 
2485	 0.132149732323576 
2486	 0.095641831252697 
2487	 8.35979908137625E-02 
2488	 3.29332809255748E-02 
2489	 2.91352381482412E-02 
2490	 4.27546308604592E-02 
2491	 5.56927836720998E-02 
2492	 9.78626972769898E-02 
2493	 0.138929512916573 
2494	 0.177471575989763 
2495	 0.181742338882831 
2496	 0.1872633669118 
2497	 0.191413111014308 
2498	 0.19793742736656 
2499	 0.240347769447232 
2500	 0.252307368951002 
