Wavelength	MAC_ARB_098_044_210422_L00001.asd
350	 0.61072560485647 
351	 0.480991188678012 
352	-0.188761641377517 
353	-0.24285534435571 
354	 7.21719402844194E-02 
355	 0.152807866410883 
356	-9.73998233328122E-02 
357	-0.117108916875524 
358	-0.165365537909629 
359	-0.201234622928241 
360	-0.147999594663768 
361	 4.94212844857809E-02 
362	 7.37794390899742E-02 
363	 4.42141281288556E-02 
364	 0.13426033215423 
365	 6.28548450990201E-02 
366	 6.14276382944057E-02 
367	 0.143498280119504 
368	 0.025354500021623 
369	 2.06972697686328E-03 
370	 2.88509552851532E-02 
371	 3.40572530400471E-02 
372	 5.49987904621111E-02 
373	 5.53315442146939E-02 
374	 4.12156560566233E-02 
375	 3.94074736500803E-02 
376	 6.00822783623052E-02 
377	 5.45353863439401E-02 
378	 2.68353212712099E-02 
379	 4.04474352428337E-02 
380	 5.04685618168056E-02 
381	 4.68352229480965E-02 
382	 3.68177949543347E-02 
383	 4.95927057957994E-02 
384	 4.93296848206795E-02 
385	 4.48079351406482E-02 
386	 5.99413083325577E-02 
387	 7.48492997808013E-02 
388	 0.057416200088436 
389	 2.54063529205713E-02 
390	 0.045352317941768 
391	 6.06058622305968E-02 
392	 6.41844419385159E-02 
393	 6.01181669556641E-02 
394	 5.07838230606943E-02 
395	 4.98265339703357E-02 
396	 0.05913727735159 
397	 7.28182849121952E-02 
398	 7.63753290487682E-02 
399	 7.69296580785908E-02 
400	 7.55469216933655E-02 
401	 0.065808472417873 
402	 6.52145871897559E-02 
403	 6.60739831111371E-02 
404	 6.03068834712956E-02 
405	 5.10313127796258E-02 
406	 4.17595611756601E-02 
407	 4.55072625367205E-02 
408	 6.89356180999084E-02 
409	 6.33302591127124E-02 
410	 0.058611687714445 
411	 6.22727062268202E-02 
412	 5.23529707729996E-02 
413	 0.050721789500377 
414	 5.16210253131689E-02 
415	 4.92205117634843E-02 
416	 5.27718678075473E-02 
417	 0.051210409622237 
418	 4.88738718130392E-02 
419	 5.49389159186991E-02 
420	 6.18355902599108E-02 
421	 6.08561220095435E-02 
422	 5.21685583903144E-02 
423	 4.59799137635971E-02 
424	 4.94291490810472E-02 
425	 5.73637090231756E-02 
426	 6.28866785424595E-02 
427	 6.33371088972678E-02 
428	 5.98943295471685E-02 
429	 0.056218629395511 
430	 5.68701500428045E-02 
431	 6.43398956078755E-02 
432	 6.72262821473308E-02 
433	 6.21123392045596E-02 
434	 5.80587690216533E-02 
435	 5.67075239326748E-02 
436	 5.70914233710391E-02 
437	 0.057571466015284 
438	 5.82295502901861E-02 
439	 5.89493166080323E-02 
440	 5.90940472821355E-02 
441	 5.80457931499646E-02 
442	 0.060040395009495 
443	 5.95289148233139E-02 
444	 5.61424040394623E-02 
445	 6.21926094859592E-02 
446	 6.14747977032031E-02 
447	 5.79591736289697E-02 
448	 5.99127915584936E-02 
449	 6.12901226883134E-02 
450	 6.07828042060681E-02 
451	 5.85216687471837E-02 
452	 5.59702401520783E-02 
453	 0.058387939028716 
454	 6.07296325926127E-02 
455	 5.90024773203581E-02 
456	 5.60051604165163E-02 
457	 5.77604233302219E-02 
458	 6.04299846246122E-02 
459	 5.75510009430037E-02 
460	 5.95060545442535E-02 
461	 0.061277862055495 
462	 6.06690174758353E-02 
463	 6.05449509493043E-02 
464	 6.11894849914208E-02 
465	 6.15117479639533E-02 
466	 6.07744507660397E-02 
467	 6.07517735700253E-02 
468	 6.11474934269693E-02 
469	 6.14378478187774E-02 
470	 6.11468015310443E-02 
471	 6.20282331888801E-02 
472	 6.15445422142538E-02 
473	 5.96114943880466E-02 
474	 6.15118079989107E-02 
475	 6.10476626972778E-02 
476	 5.91458693106831E-02 
477	 5.86889449285083E-02 
478	 5.98745252984753E-02 
479	 6.21408267422907E-02 
480	 6.23875463888562E-02 
481	 5.60926666517628E-02 
482	 5.61417796438683E-02 
483	 5.83054904311503E-02 
484	 0.058253333269976 
485	 6.01043823716613E-02 
486	 6.07155679130409E-02 
487	 5.98322461961147E-02 
488	 5.87989452188268E-02 
489	 5.97969039566676E-02 
490	 6.11067216939241E-02 
491	 6.11048541058413E-02 
492	 5.87923348466654E-02 
493	 5.97070761045205E-02 
494	 6.17273246939695E-02 
495	 6.17285655548715E-02 
496	 6.11742319477641E-02 
497	 5.90324657781774E-02 
498	 5.68003034379016E-02 
499	 5.73989452071481E-02 
500	 5.86450185433804E-02 
501	 5.87680852879274E-02 
502	 5.79603909486621E-02 
503	 6.02451388339617E-02 
504	 6.20779241053296E-02 
505	 6.26588104771815E-02 
506	 6.23713113157367E-02 
507	 0.062227605804364 
508	 6.20357428658609E-02 
509	 6.22495689332978E-02 
510	 6.40225111415692E-02 
511	 6.44866180692178E-02 
512	 0.064584761052476 
513	 0.065336151595927 
514	 6.51619033884977E-02 
515	 6.60900051482435E-02 
516	 6.74789361138999E-02 
517	 6.74818791557327E-02 
518	 6.86193934705862E-02 
519	 6.96830011582962E-02 
520	 7.02797356851655E-02 
521	 7.21653622955239E-02 
522	 7.36796251840305E-02 
523	 7.45596115119087E-02 
524	 7.51421673310044E-02 
525	 7.62348453842163E-02 
526	 7.71677186751163E-02 
527	 7.81916950801111E-02 
528	 8.03489003885579E-02 
529	 0.081301716899738 
530	 8.21081756915189E-02 
531	 8.35994468852487E-02 
532	 8.41423174095566E-02 
533	 8.50163667531762E-02 
534	 8.60162040074491E-02 
535	 8.63536528678144E-02 
536	 8.68466648854227E-02 
537	 0.087577080714842 
538	 8.84752375160868E-02 
539	 8.93878391885792E-02 
540	 8.98601115243153E-02 
541	 8.99603772930211E-02 
542	 9.00673668577921E-02 
543	 9.10860572487589E-02 
544	 0.092059883695939 
545	 9.23249093264825E-02 
546	 9.16455833597695E-02 
547	 9.19502065909135E-02 
548	 9.21818445565246E-02 
549	 9.17243339003487E-02 
550	 9.26312779617752E-02 
551	 9.21615781511675E-02 
552	 9.13073928149112E-02 
553	 9.22667865098529E-02 
554	 9.18287910485618E-02 
555	 9.17419787887642E-02 
556	 9.23243403446218E-02 
557	 0.091191756173112 
558	 9.02323724566221E-02 
559	 9.00125782811934E-02 
560	 9.02539003078909E-02 
561	 8.89116999379724E-02 
562	 8.75716421986286E-02 
563	 8.67172948173633E-02 
564	 0.085864015252669 
565	 8.54961593536632E-02 
566	 8.48628897265639E-02 
567	 8.36770570526392E-02 
568	 8.33352614277228E-02 
569	 8.21096087207026E-02 
570	 8.08692997819128E-02 
571	 8.11695271696164E-02 
572	 8.04536064099013E-02 
573	 7.91219993036771E-02 
574	 7.77587115344448E-02 
575	 7.67953213004294E-02 
576	 7.64458603363366E-02 
577	 7.61905875913497E-02 
578	 7.55380032191501E-02 
579	 7.49965885802125E-02 
580	 7.45013881262498E-02 
581	 7.42599408987183E-02 
582	 7.45422067075779E-02 
583	 7.34070415325707E-02 
584	 7.22197054452119E-02 
585	 7.18851052953542E-02 
586	 7.10400140727457E-02 
587	 7.10297616244045E-02 
588	 7.12793416960142E-02 
589	 7.07707441093809E-02 
590	 7.09793897270202E-02 
591	 7.10107596600497E-02 
592	 7.04801938601979E-02 
593	 6.98450017922959E-02 
594	 6.91395965387597E-02 
595	 6.89346143528445E-02 
596	 0.069426320359557 
597	 6.91643833198678E-02 
598	 6.89613671304753E-02 
599	 6.89114045390845E-02 
600	 6.86392996934733E-02 
601	 6.84844685690836E-02 
602	 6.87468604633449E-02 
603	 6.91789207681235E-02 
604	 6.84009588686845E-02 
605	 0.068166308629415 
606	 6.79758620214032E-02 
607	 6.69046309996308E-02 
608	 6.65134650020497E-02 
609	 6.69091917092594E-02 
610	 6.72329915384254E-02 
611	 6.57766408841495E-02 
612	 6.52934300167081E-02 
613	 6.51859885850507E-02 
614	 6.46837160310244E-02 
615	 6.50091289529112E-02 
616	 6.50735916571943E-02 
617	 6.46047161183181E-02 
618	 6.39310985749008E-02 
619	 0.06399122019386 
620	 6.41642694355667E-02 
621	 6.40266694111921E-02 
622	 6.38126436671839E-02 
623	 6.38296830687147E-02 
624	 6.40106995674925E-02 
625	 6.40889269400674E-02 
626	 0.063578603758554 
627	 6.30446979705397E-02 
628	 6.28621871035304E-02 
629	 6.31335678309618E-02 
630	 6.31253458460974E-02 
631	 6.30819805893918E-02 
632	 6.32007571537423E-02 
633	 0.062962167946104 
634	 6.33099254385245E-02 
635	 6.35026808686624E-02 
636	 6.23455623391659E-02 
637	 6.17360986503884E-02 
638	 6.18024636470847E-02 
639	 6.20504443827017E-02 
640	 6.13843698069474E-02 
641	 6.12733526668128E-02 
642	 6.13265802145788E-02 
643	 6.09634308717105E-02 
644	 6.09457806152059E-02 
645	 6.05507130413767E-02 
646	 6.00627956558695E-02 
647	 6.03777087554156E-02 
648	 6.02621579761728E-02 
649	 5.95332968747734E-02 
650	 5.87150255581969E-02 
651	 5.94703900794194E-02 
652	 6.01353293368096E-02 
653	 5.98991306741709E-02 
654	 5.87736937771638E-02 
655	 5.93438717571358E-02 
656	 5.93773384797159E-02 
657	 5.83539600110268E-02 
658	 5.77961852179147E-02 
659	 5.88664550703002E-02 
660	 5.95344074441361E-02 
661	 5.85035676865121E-02 
662	 5.83266606511504E-02 
663	 5.80788537521114E-02 
664	 5.79117013677089E-02 
665	 5.82645665431811E-02 
666	 5.77175437065057E-02 
667	 0.057832360158828 
668	 5.86939557811134E-02 
669	 5.80152578361423E-02 
670	 5.79343390368297E-02 
671	 5.77968072946812E-02 
672	 5.69242170565653E-02 
673	 5.71648657371735E-02 
674	 5.80184624782658E-02 
675	 5.88766385471759E-02 
676	 5.91867070936906E-02 
677	 5.97384683651312E-02 
678	 6.01182121608737E-02 
679	 6.00691537561554E-02 
680	 5.98434805013794E-02 
681	 6.01038269565343E-02 
682	 0.060470519337139 
683	 6.04574768233263E-02 
684	 6.08716281748702E-02 
685	 6.13631571212161E-02 
686	 6.17197639784159E-02 
687	 6.19226391068849E-02 
688	 6.24387897417042E-02 
689	 6.29878088886747E-02 
690	 6.36322960045694E-02 
691	 6.56335015114273E-02 
692	 6.68183413812591E-02 
693	 6.81887971561738E-02 
694	 7.12999429611218E-02 
695	 0.073437055841687 
696	 7.61646659622091E-02 
697	 8.01691951683693E-02 
698	 8.49303151650125E-02 
699	 8.95481684994119E-02 
700	 9.43843171157615E-02 
701	 0.099761820298209 
702	 0.105104821427082 
703	 0.111330439888033 
704	 0.118138460776919 
705	 0.124862540346907 
706	 0.132380521895443 
707	 0.140130711413305 
708	 0.147848932918356 
709	 0.155718634277759 
710	 0.163396748327142 
711	 0.171419429775524 
712	 0.180053489223879 
713	 0.1881728842219 
714	 0.196336414731377 
715	 0.205105264076136 
716	 0.214733317741372 
717	 0.223837279920994 
718	 0.232859089683508 
719	 0.241962213758391 
720	 0.25088112361649 
721	 0.259588047855797 
722	 0.268085326583945 
723	 0.276485933015208 
724	 0.285144280800836 
725	 0.293638148078041 
726	 0.301820615889305 
727	 0.309688659451108 
728	 0.317179461790265 
729	 0.323872087182615 
730	 0.330063628791553 
731	 0.3368582622018 
732	 0.343493205920454 
733	 0.349425154055444 
734	 0.354612535509064 
735	 0.3603365371709 
736	 0.365237321551994 
737	 0.369482619826316 
738	 0.373832034293813 
739	 0.377471620045096 
740	 0.38084821690488 
741	 0.384283384710866 
742	 0.387811536105124 
743	 0.390508846434746 
744	 0.393128879384078 
745	 0.39615723895623 
746	 0.398385820369219 
747	 0.400149497713962 
748	 0.401736417126096 
749	 0.403360212119177 
750	 0.404751889990743 
751	 0.405947401066595 
752	 0.407088956808527 
753	 0.408364563776996 
754	 0.409055732393671 
755	 0.409786365343653 
756	 0.410937514614838 
757	 0.41177465469775 
758	 0.412646807102573 
759	 0.41327199291021 
760	 0.41340241713039 
761	 0.414006925952045 
762	 0.414654272041422 
763	 0.415118894412312 
764	 0.415402984015083 
765	 0.415408531491956 
766	 0.415254230481836 
767	 0.415193608047526 
768	 0.415669682734974 
769	 0.415798993851231 
770	 0.41570658697394 
771	 0.415757204657909 
772	 0.415948256657201 
773	 0.416385043528573 
774	 0.416644562881605 
775	 0.416193535275779 
776	 0.416301584385307 
777	 0.416401703183893 
778	 0.416247928985028 
779	 0.416249779861125 
780	 0.416792720187762 
781	 0.417119607090694 
782	 0.416790672663021 
783	 0.416906867268908 
784	 0.416694539502485 
785	 0.416695592871483 
786	 0.417500837458788 
787	 0.417032380474912 
788	 0.416959641491397 
789	 0.417445885537668 
790	 0.417317667960918 
791	 0.417697076901083 
792	 0.417954935474776 
793	 0.417783267951203 
794	 0.417819633233603 
795	 0.417972214519488 
796	 0.418121702820116 
797	 0.418148017763955 
798	 0.417963165275226 
799	 0.418142596323915 
800	 0.418277829206333 
801	 0.417743158882985 
802	 0.417966488501622 
803	 0.418309723861014 
804	 0.418447142548133 
805	 0.418537137924521 
806	 0.41875389343068 
807	 0.418912415695372 
808	 0.418890787145724 
809	 0.418802297640802 
810	 0.418591413487879 
811	 0.418457035004161 
812	 0.418575476245521 
813	 0.418789592527801 
814	 0.419238628499505 
815	 0.419651281971033 
816	 0.419629813301323 
817	 0.419331255825681 
818	 0.419522983060059 
819	 0.419982071834378 
820	 0.419631632798802 
821	 0.419654504890115 
822	 0.419789090177972 
823	 0.419825387593625 
824	 0.420031068992667 
825	 0.420146330271188 
826	 0.420090905660921 
827	 0.419902833238598 
828	 0.419786416458702 
829	 0.419765411323577 
830	 0.419745299460261 
831	 0.41969396432435 
832	 0.42020945190019 
833	 0.420612248033677 
834	 0.420751400189161 
835	 0.420949562897836 
836	 0.421439697658709 
837	 0.421743189357453 
838	 0.421612926546894 
839	 0.421240892792592 
840	 0.421343600791184 
841	 0.421534986273122 
842	 0.421495399193221 
843	 0.421564420782074 
844	 0.421663227999699 
845	 0.421710592232833 
846	 0.421675800567696 
847	 0.421683690722548 
848	 0.422019094636849 
849	 0.422411568494808 
850	 0.422426994046817 
851	 0.422324081377784 
852	 0.422604388544281 
853	 0.422853936953785 
854	 0.42217886095664 
855	 0.422031596703429 
856	 0.422852048842048 
857	 0.423778266631701 
858	 0.422809074060364 
859	 0.422739159864965 
860	 0.423222593712553 
861	 0.423512396918807 
862	 0.423279380014311 
863	 0.424147066065594 
864	 0.424524788384277 
865	 0.423333200763626 
866	 0.423435455205726 
867	 0.423525380366265 
868	 0.423735626464069 
869	 0.424243671331166 
870	 0.423234049301439 
871	 0.42285985818876 
872	 0.42343819461678 
873	 0.424133922793267 
874	 0.424661371252541 
875	 0.424491336175944 
876	 0.424201956235726 
877	 0.42491059892287 
878	 0.424166441166047 
879	 0.424437493970315 
880	 0.425672463163758 
881	 0.424652101139836 
882	 0.424050050411583 
883	 0.42458380914889 
884	 0.425626760837286 
885	 0.425152521387948 
886	 0.42478166597 
887	 0.424868701923052 
888	 0.425229991199563 
889	 0.42517557012732 
890	 0.425661247635655 
891	 0.4255715975531 
892	 0.424318691971275 
893	 0.424417388535425 
894	 0.426116615510617 
895	 0.42733215274091 
896	 0.426342345612588 
897	 0.426443319240341 
898	 0.425905618329314 
899	 0.42534094860654 
900	 0.425885925088166 
901	 0.425417606986954 
902	 0.425330836356643 
903	 0.425857081676505 
904	 0.426231420359465 
905	 0.424866110574724 
906	 0.425287298072581 
907	 0.426850258595259 
908	 0.426073545554444 
909	 0.425970752086013 
910	 0.425638598492396 
911	 0.425175441437741 
912	 0.425722442615665 
913	 0.425914403740761 
914	 0.425920032431493 
915	 0.426210532469595 
916	 0.427204736105546 
917	 0.427481222139477 
918	 0.427244181225182 
919	 0.4266569172747 
920	 0.425582134170324 
921	 0.426284225431583 
922	 0.42686582254958 
923	 0.426057195460625 
924	 0.42482684594054 
925	 0.425109374042805 
926	 0.424861593150887 
927	 0.424153719528395 
928	 0.427721827010296 
929	 0.427784165076821 
930	 0.426885474981615 
931	 0.427419355120799 
932	 0.42684618367167 
933	 0.426599290923922 
934	 0.426387317126792 
935	 0.425921975870832 
936	 0.425742959212238 
937	 0.425843648633883 
938	 0.426213411579866 
939	 0.426523413003731 
940	 0.425844371379356 
941	 0.42584849097097 
942	 0.426376763719274 
943	 0.426563013306223 
944	 0.425292832792999 
945	 0.423470756989085 
946	 0.422867288651531 
947	 0.424099853151135 
948	 0.42484119254196 
949	 0.423304499473081 
950	 0.423495944892128 
951	 0.426939400399176 
952	 0.425839056623021 
953	 0.423397583765527 
954	 0.422587552096136 
955	 0.423755709663 
956	 0.421530283639629 
957	 0.422019036112163 
958	 0.423291636738161 
959	 0.42247819297156 
960	 0.419764416990817 
961	 0.419755060696274 
962	 0.421748665920722 
963	 0.422845237884777 
964	 0.419431174034641 
965	 0.420339845279063 
966	 0.421833422094501 
967	 0.420682008187668 
968	 0.420586127179431 
969	 0.420560877804294 
970	 0.420967829225966 
971	 0.421780343278636 
972	 0.421990759787811 
973	 0.420975592670309 
974	 0.419384338056188 
975	 0.418663678713809 
976	 0.420482295299755 
977	 0.419051558045225 
978	 0.419143674241321 
979	 0.421871383881645 
980	 0.421793908124919 
981	 0.420911397488728 
982	 0.419983160239184 
983	 0.419340099727268 
984	 0.41901358871976 
985	 0.419822548383227 
986	 0.421048397744396 
987	 0.42131725340035 
988	 0.419656792427272 
989	 0.419625645644021 
990	 0.418823798387721 
991	 0.41927873304082 
992	 0.424527037010193 
993	 0.427298838489457 
994	 0.424579431275595 
995	 0.421002696091713 
996	 0.422666977028369 
997	 0.422992280971285 
998	 0.42282527729062 
999	 0.423674159645714 
1000	 0.42605707693268 
1001	 0.422587688073097 
1002	 0.422603307161166 
1003	 0.421939285411019 
1004	 0.421286663185582 
1005	 0.422111303809218 
1006	 0.423130090366244 
1007	 0.423722568425784 
1008	 0.425269701210276 
1009	 0.427860755287606 
1010	 0.427995265849053 
1011	 0.427234686458219 
1012	 0.427363374074846 
1013	 0.427541889543238 
1014	 0.426262378160955 
1015	 0.426015832200529 
1016	 0.427286716504395 
1017	 0.427537890397081 
1018	 0.427931266244525 
1019	 0.429352410711017 
1020	 0.429787637022543 
1021	 0.429749434160424 
1022	 0.43004819231007 
1023	 0.429438712754646 
1024	 0.429033231899915 
1025	 0.42848124675906 
1026	 0.428617488364131 
1027	 0.429011314607394 
1028	 0.428688194714361 
1029	 0.4282680776659 
1030	 0.428280854668315 
1031	 0.427118131249128 
1032	 0.427361771293067 
1033	 0.429561465958919 
1034	 0.430527359889363 
1035	 0.430927155659442 
1036	 0.430983533622685 
1037	 0.431425892199744 
1038	 0.431331900770511 
1039	 0.431332834386075 
1040	 0.431830240683855 
1041	 0.432032779876628 
1042	 0.431548636795545 
1043	 0.431257109843207 
1044	 0.432003932252626 
1045	 0.433110247442868 
1046	 0.433294973384104 
1047	 0.432644818670857 
1048	 0.432421546108722 
1049	 0.431791567054902 
1050	 0.431342011751135 
1051	 0.430929101752639 
1052	 0.43140397732041 
1053	 0.43122100852059 
1054	 0.429452048299161 
1055	 0.429719814481418 
1056	 0.43042667310877 
1057	 0.430000398651574 
1058	 0.43172077989991 
1059	 0.432508643632742 
1060	 0.431902806339907 
1061	 0.432295459833748 
1062	 0.43354709422863 
1063	 0.433667185105596 
1064	 0.433178474315153 
1065	 0.433877528523858 
1066	 0.433228555776807 
1067	 0.433210116171194 
1068	 0.433945995728624 
1069	 0.434005802480466 
1070	 0.435136851839184 
1071	 0.436322077251696 
1072	 0.436477756532046 
1073	 0.435987658282157 
1074	 0.436034484585401 
1075	 0.435426935961805 
1076	 0.435270923718028 
1077	 0.435666793016955 
1078	 0.436051654017546 
1079	 0.436238081934348 
1080	 0.435736478314344 
1081	 0.435561858796295 
1082	 0.435729670313778 
1083	 0.435263817437535 
1084	 0.434996088018258 
1085	 0.434947280849596 
1086	 0.43512617807068 
1087	 0.435127655851363 
1088	 0.43502847265055 
1089	 0.43508577014549 
1090	 0.435065606923564 
1091	 0.435191306275294 
1092	 0.435471857121084 
1093	 0.436200669285897 
1094	 0.436577767955529 
1095	 0.436435892832609 
1096	 0.435764846138384 
1097	 0.435644076502342 
1098	 0.435603354400706 
1099	 0.435684372210374 
1100	 0.435536452039358 
1101	 0.435359928411027 
1102	 0.435457446073498 
1103	 0.435595001890178 
1104	 0.43574439155855 
1105	 0.436304279090231 
1106	 0.436501618181902 
1107	 0.436493074778294 
1108	 0.436531074755264 
1109	 0.436489774615913 
1110	 0.436264750032987 
1111	 0.436329611525733 
1112	 0.436583330213177 
1113	 0.436543420594724 
1114	 0.436617040169217 
1115	 0.436516748535134 
1116	 0.435878257664874 
1117	 0.435617128179121 
1118	 0.435489378398436 
1119	 0.435593956353229 
1120	 0.436264991006573 
1121	 0.436203089518876 
1122	 0.436690577926344 
1123	 0.436531096300377 
1124	 0.436366051215831 
1125	 0.435987768728411 
1126	 0.435723779618495 
1127	 0.435433447493823 
1128	 0.434960585619 
1129	 0.434245213267555 
1130	 0.433735658728429 
1131	 0.433224958091807 
1132	 0.432633034570908 
1133	 0.432212794536019 
1134	 0.431752293016354 
1135	 0.43044369182918 
1136	 0.429352772069818 
1137	 0.42858550856816 
1138	 0.42787092927494 
1139	 0.426993671193485 
1140	 0.42638501186428 
1141	 0.425739451950291 
1142	 0.424843830383308 
1143	 0.424038874991876 
1144	 0.423667174667793 
1145	 0.422832856781989 
1146	 0.421739661418858 
1147	 0.420537249374486 
1148	 0.418881474617848 
1149	 0.417572145465924 
1150	 0.416405628842682 
1151	 0.415098923802955 
1152	 0.414097832914884 
1153	 0.413477739194697 
1154	 0.412786872234497 
1155	 0.412190666348124 
1156	 0.411577190082493 
1157	 0.410989962184833 
1158	 0.410509002515362 
1159	 0.410168408536865 
1160	 0.409662749686663 
1161	 0.409193314744143 
1162	 0.40871832673827 
1163	 0.408190858540771 
1164	 0.407287765465969 
1165	 0.407005645757934 
1166	 0.407143888451333 
1167	 0.40689874576357 
1168	 0.406704831823766 
1169	 0.406552766741717 
1170	 0.406226144256715 
1171	 0.405978967626975 
1172	 0.405932364150322 
1173	 0.405804830039977 
1174	 0.405649827218003 
1175	 0.405368335829297 
1176	 0.405043192798982 
1177	 0.404729397540416 
1178	 0.404361487318639 
1179	 0.40381592841374 
1180	 0.403392467432295 
1181	 0.402887654183136 
1182	 0.402795831321659 
1183	 0.403046121324428 
1184	 0.402873004415827 
1185	 0.402797026341736 
1186	 0.402675717148689 
1187	 0.402080278492867 
1188	 0.401852388838732 
1189	 0.402141445934893 
1190	 0.402060790730666 
1191	 0.401661491580254 
1192	 0.401525046690325 
1193	 0.401441538681005 
1194	 0.401292487980037 
1195	 0.401287473018975 
1196	 0.401523526349158 
1197	 0.401623675991695 
1198	 0.401710227135861 
1199	 0.40174296097369 
1200	 0.401870574792668 
1201	 0.401791621195176 
1202	 0.401384588129871 
1203	 0.401273309727149 
1204	 0.400960257147206 
1205	 0.401093696126093 
1206	 0.401792000469438 
1207	 0.402260182173477 
1208	 0.402939437289525 
1209	 0.403611494698326 
1210	 0.403770713697127 
1211	 0.403504437165764 
1212	 0.403452149846577 
1213	 0.402964409038286 
1214	 0.403102264896786 
1215	 0.403530322997951 
1216	 0.404036760915431 
1217	 0.404972844761004 
1218	 0.405630838169601 
1219	 0.406599965324606 
1220	 0.406967957709035 
1221	 0.406588423742172 
1222	 0.406731543211223 
1223	 0.406698843217715 
1224	 0.406883921601449 
1225	 0.407241217540696 
1226	 0.40823165445427 
1227	 0.408583349811863 
1228	 0.40865219334693 
1229	 0.408837895343942 
1230	 0.408853813466135 
1231	 0.409007006053592 
1232	 0.409184960995544 
1233	 0.409480551115124 
1234	 0.409938329882713 
1235	 0.410276119468987 
1236	 0.410631739476406 
1237	 0.411000922728494 
1238	 0.411236122226666 
1239	 0.411570584901499 
1240	 0.412186739097632 
1241	 0.412736452645466 
1242	 0.413178222841722 
1243	 0.41368124039333 
1244	 0.413980340588478 
1245	 0.414127645561728 
1246	 0.414154624696137 
1247	 0.413849725953933 
1248	 0.414001770038465 
1249	 0.414212534754244 
1250	 0.414507130856722 
1251	 0.415201001425841 
1252	 0.415683286231069 
1253	 0.4162568893564 
1254	 0.416486713200942 
1255	 0.41652604872048 
1256	 0.416502374586845 
1257	 0.416380147292677 
1258	 0.416011297417124 
1259	 0.415808072483611 
1260	 0.415606893601365 
1261	 0.415712086696174 
1262	 0.416069768941686 
1263	 0.416048912742711 
1264	 0.416080473421066 
1265	 0.416146135669901 
1266	 0.415782737201252 
1267	 0.415784555292536 
1268	 0.416287553738095 
1269	 0.416525915891204 
1270	 0.41680686145753 
1271	 0.416906439087645 
1272	 0.416868318281579 
1273	 0.416737598961371 
1274	 0.416671426979357 
1275	 0.416190770051536 
1276	 0.41617776672856 
1277	 0.416486179578897 
1278	 0.416505359592839 
1279	 0.416645424208711 
1280	 0.416518729405228 
1281	 0.415800101416527 
1282	 0.415821621072891 
1283	 0.416284834633534 
1284	 0.416438241219397 
1285	 0.4171242341313 
1286	 0.417226732647184 
1287	 0.416516976378026 
1288	 0.416246844862476 
1289	 0.416139709569656 
1290	 0.415769942441106 
1291	 0.415484133510188 
1292	 0.415514310964058 
1293	 0.415552067944664 
1294	 0.415462917996511 
1295	 0.415377602161697 
1296	 0.415577396955749 
1297	 0.415251837234123 
1298	 0.414569537106413 
1299	 0.413963969281915 
1300	 0.413064358131375 
1301	 0.412358548749066 
1302	 0.411623705670154 
1303	 0.411089172672974 
1304	 0.410617050344927 
1305	 0.41028675350905 
1306	 0.410147186224801 
1307	 0.410146159624573 
1308	 0.410037212127214 
1309	 0.409801465949228 
1310	 0.409199697672651 
1311	 0.408618175368407 
1312	 0.408055991127655 
1313	 0.407202616337081 
1314	 0.406547498693607 
1315	 0.406106487709541 
1316	 0.405252536500671 
1317	 0.404134562045691 
1318	 0.403322938500598 
1319	 0.402444280572813 
1320	 0.401576389687693 
1321	 0.401009738217383 
1322	 0.400231552043596 
1323	 0.399272431716801 
1324	 0.398267937710466 
1325	 0.397283917591888 
1326	 0.395995265656334 
1327	 0.395065083379833 
1328	 0.394081847382756 
1329	 0.393130877948624 
1330	 0.392611928303847 
1331	 0.391633920822027 
1332	 0.390795315900724 
1333	 0.389850704042899 
1334	 0.388882880533091 
1335	 0.387774630774535 
1336	 0.386563907286897 
1337	 0.385270138569661 
1338	 0.38381339339913 
1339	 0.382506905146333 
1340	 0.381149231166572 
1341	 0.379941156689948 
1342	 0.378921821729282 
1343	 0.377786311666814 
1344	 0.376597590417837 
1345	 0.375521344721959 
1346	 0.374382520124299 
1347	 0.373117218390884 
1348	 0.372176862966577 
1349	 0.371046909282217 
1350	 0.370004650093982 
1351	 0.36927490518922 
1352	 0.368204794651219 
1353	 0.366983848816802 
1354	 0.365854111343312 
1355	 0.364515598623482 
1356	 0.363387455167463 
1357	 0.362428259393317 
1358	 0.361494147390224 
1359	 0.360777411337858 
1360	 0.359775568431337 
1361	 0.358800238469878 
1362	 0.357554053253722 
1363	 0.356138517855457 
1364	 0.354320955710441 
1365	 0.352751885840238 
1366	 0.35148174962256 
1367	 0.349765448450281 
1368	 0.348440206077139 
1369	 0.347022394143853 
1370	 0.344804931667916 
1371	 0.342756788642206 
1372	 0.340632778368202 
1373	 0.338352183729106 
1374	 0.336228818362378 
1375	 0.333883273965249 
1376	 0.331688302892169 
1377	 0.32893392043064 
1378	 0.325685720364791 
1379	 0.322578316062432 
1380	 0.319320759087945 
1381	 0.315739954549165 
1382	 0.312223772706743 
1383	 0.308191736058482 
1384	 0.303568536510125 
1385	 0.299046074374159 
1386	 0.294543824477762 
1387	 0.289602364284582 
1388	 0.284764772306615 
1389	 0.279696070067176 
1390	 0.274294496985082 
1391	 0.269111964003489 
1392	 0.263893940235388 
1393	 0.258462440947563 
1394	 0.25280365482832 
1395	 0.246985818517934 
1396	 0.241346992496053 
1397	 0.235501610350719 
1398	 0.229913872688217 
1399	 0.224544804942189 
1400	 0.219269217647565 
1401	 0.213975564264503 
1402	 0.208984812187679 
1403	 0.204215806334702 
1404	 0.199754803344059 
1405	 0.195577818629031 
1406	 0.191483470221669 
1407	 0.187862726442922 
1408	 0.183856006008941 
1409	 0.179634009574045 
1410	 0.175937979240246 
1411	 0.172653619227762 
1412	 0.169626322514899 
1413	 0.167043492054044 
1414	 0.164742908348695 
1415	 0.162396829300322 
1416	 0.160260619978707 
1417	 0.158328270505736 
1418	 0.156350244295667 
1419	 0.154363762044885 
1420	 0.152280388353095 
1421	 0.150316531360413 
1422	 0.148184063238764 
1423	 0.146613523149794 
1424	 0.145443023133913 
1425	 0.144278792398531 
1426	 0.143409936768745 
1427	 0.142636473034713 
1428	 0.141943056879744 
1429	 0.141063834682228 
1430	 0.140384356531943 
1431	 0.139600162325178 
1432	 0.138499078743847 
1433	 0.137587181267441 
1434	 0.137150632803057 
1435	 0.136823381421878 
1436	 0.136491644363641 
1437	 0.136388197609882 
1438	 0.136132086766429 
1439	 0.135555705788687 
1440	 0.135086205884058 
1441	 0.134622481493411 
1442	 0.134191383327828 
1443	 0.133864977364614 
1444	 0.133688238435826 
1445	 0.133744725483845 
1446	 0.133736853660988 
1447	 0.133848875806141 
1448	 0.133749905868495 
1449	 0.133490204075905 
1450	 0.133359996335194 
1451	 0.133155874033742 
1452	 0.13312741874072 
1453	 0.133265534978694 
1454	 0.133398662332128 
1455	 0.133774125678612 
1456	 0.133811746578531 
1457	 0.133739015796615 
1458	 0.133485705518832 
1459	 0.133318414577817 
1460	 0.133313516608846 
1461	 0.133802837891476 
1462	 0.134580376710898 
1463	 0.13516951169984 
1464	 0.135593637794241 
1465	 0.135701028154551 
1466	 0.135862476361201 
1467	 0.136303344840531 
1468	 0.136640005843299 
1469	 0.137130190944423 
1470	 0.137832342912007 
1471	 0.138509751534169 
1472	 0.139155028705141 
1473	 0.139947050525324 
1474	 0.140917395664245 
1475	 0.141696325075209 
1476	 0.142465809767699 
1477	 0.143232848037871 
1478	 0.143903285764941 
1479	 0.144705503074281 
1480	 0.145576456598201 
1481	 0.146345139487558 
1482	 0.147130252678775 
1483	 0.147893367307506 
1484	 0.148545187308901 
1485	 0.149338730235774 
1486	 0.150223779125909 
1487	 0.151068923054589 
1488	 0.151963588343479 
1489	 0.152960551876242 
1490	 0.153864380513582 
1491	 0.15478742451728 
1492	 0.155763868256941 
1493	 0.156700499936567 
1494	 0.157721886746533 
1495	 0.159048156968888 
1496	 0.16040849332553 
1497	 0.16187241900157 
1498	 0.163510336200028 
1499	 0.164878730452328 
1500	 0.165942345182505 
1501	 0.166826647951541 
1502	 0.167831192980478 
1503	 0.168525237936269 
1504	 0.169553364140622 
1505	 0.170935567577365 
1506	 0.17211970120268 
1507	 0.173314008451892 
1508	 0.174476262408782 
1509	 0.175563889928617 
1510	 0.176713625390552 
1511	 0.177958657370428 
1512	 0.178921200471028 
1513	 0.179655898150063 
1514	 0.180694598282633 
1515	 0.181591567016395 
1516	 0.182715617602179 
1517	 0.184325297801837 
1518	 0.185647715824621 
1519	 0.186692052620677 
1520	 0.188128934579759 
1521	 0.189829707780122 
1522	 0.19096295219489 
1523	 0.192325792350284 
1524	 0.193587992446144 
1525	 0.194379233826976 
1526	 0.195601246213262 
1527	 0.196915081850131 
1528	 0.197925946350323 
1529	 0.19885607293117 
1530	 0.199727066374551 
1531	 0.200516307322018 
1532	 0.201546900096025 
1533	 0.202282376722249 
1534	 0.202842655750049 
1535	 0.203833504801649 
1536	 0.204800193552023 
1537	 0.205890736281666 
1538	 0.207670408562336 
1539	 0.208736200170963 
1540	 0.209197749529685 
1541	 0.21027483988749 
1542	 0.211553659741188 
1543	 0.212516531380409 
1544	 0.213685162378141 
1545	 0.214706582822154 
1546	 0.215196833965437 
1547	 0.216004676369977 
1548	 0.217042183953566 
1549	 0.217983524661846 
1550	 0.219062590699014 
1551	 0.219991943459121 
1552	 0.220966284959536 
1553	 0.221734284856075 
1554	 0.222063372978532 
1555	 0.222655091702133 
1556	 0.223127318540221 
1557	 0.224012770161396 
1558	 0.225033739987527 
1559	 0.226115017684172 
1560	 0.227390997650146 
1561	 0.228365964265069 
1562	 0.22922382130771 
1563	 0.230177223583019 
1564	 0.230817675949598 
1565	 0.231534045752112 
1566	 0.232451282347386 
1567	 0.233228784684086 
1568	 0.233807100817958 
1569	 0.234442722125126 
1570	 0.235002976767182 
1571	 0.235556161669604 
1572	 0.236387965061781 
1573	 0.237337090254345 
1574	 0.238198372354809 
1575	 0.238631814010739 
1576	 0.23915450992807 
1577	 0.239458956293385 
1578	 0.239994334849592 
1579	 0.240529254214208 
1580	 0.24131952703971 
1581	 0.242353154021409 
1582	 0.243138360123347 
1583	 0.244137040771316 
1584	 0.244843786577028 
1585	 0.245112990752326 
1586	 0.245845517888681 
1587	 0.246732584319732 
1588	 0.247455204099082 
1589	 0.248373126623003 
1590	 0.249011573623198 
1591	 0.249245484537427 
1592	 0.249871771730055 
1593	 0.250798766087361 
1594	 0.251475243278372 
1595	 0.252037590214104 
1596	 0.252760859920844 
1597	 0.253339284881457 
1598	 0.254024760013578 
1599	 0.255284369682503 
1600	 0.255970314301198 
1601	 0.256084005239622 
1602	 0.256564776812899 
1603	 0.256643414260969 
1604	 0.257369184191225 
1605	 0.259181728752788 
1606	 0.260181886654194 
1607	 0.261142782843064 
1608	 0.261859698685629 
1609	 0.262141802617481 
1610	 0.261861990702243 
1611	 0.262263516949774 
1612	 0.262492079040392 
1613	 0.262936470554578 
1614	 0.263788192540999 
1615	 0.263941183326287 
1616	 0.264484812753425 
1617	 0.264853773660415 
1618	 0.264667280667098 
1619	 0.265489646920835 
1620	 0.266490339265421 
1621	 0.267214873504696 
1622	 0.268227058420756 
1623	 0.268862860290688 
1624	 0.269138595374304 
1625	 0.269659832191927 
1626	 0.270194002120782 
1627	 0.270624878130594 
1628	 0.271004688217686 
1629	 0.271474224486139 
1630	 0.271837668193605 
1631	 0.272442796200803 
1632	 0.273303251646235 
1633	 0.273800461669417 
1634	 0.274382262723345 
1635	 0.274530253763324 
1636	 0.274161924626781 
1637	 0.274252209534993 
1638	 0.274284176437741 
1639	 0.274420976267796 
1640	 0.274649603595227 
1641	 0.27525637279908 
1642	 0.276240922771754 
1643	 0.276732702078305 
1644	 0.277400114747976 
1645	 0.27784444702356 
1646	 0.277711645684835 
1647	 0.277898249934139 
1648	 0.278529844164224 
1649	 0.278573713162147 
1650	 0.278160633922094 
1651	 0.277962911387622 
1652	 0.277501352659303 
1653	 0.277387461420045 
1654	 0.277701078715101 
1655	 0.277568109168391 
1656	 0.277321010540165 
1657	 0.277110371991875 
1658	 0.276583332238084 
1659	 0.276291107575661 
1660	 0.276055165989505 
1661	 0.276128867108298 
1662	 0.276480154115816 
1663	 0.276702661768549 
1664	 0.277329296769204 
1665	 0.277464123895275 
1666	 0.277324793263997 
1667	 0.276982873533424 
1668	 0.276105263787144 
1669	 0.275719744283141 
1670	 0.275309104488592 
1671	 0.275078633628278 
1672	 0.275550608792265 
1673	 0.275355169098244 
1674	 0.274576830494623 
1675	 0.274263259630604 
1676	 0.274193310553574 
1677	 0.273616202275136 
1678	 0.272792957512756 
1679	 0.272333966782342 
1680	 0.271507754630496 
1681	 0.270990144684432 
1682	 0.271300249113295 
1683	 0.271164837825588 
1684	 0.270751052767273 
1685	 0.270271227103682 
1686	 0.269656859081463 
1687	 0.269073387775352 
1688	 0.268176419493575 
1689	 0.267670685242877 
1690	 0.267647910182818 
1691	 0.267237424462837 
1692	 0.266889404438018 
1693	 0.266359915108878 
1694	 0.265249486535975 
1695	 0.264551332678753 
1696	 0.264148795496429 
1697	 0.263583966379086 
1698	 0.263122047660416 
1699	 0.262619535936394 
1700	 0.261704091828055 
1701	 0.261310055380858 
1702	 0.261194322092219 
1703	 0.261240447062903 
1704	 0.262635188775812 
1705	 0.262357239774763 
1706	 0.260726176406218 
1707	 0.259826189572281 
1708	 0.257897757707128 
1709	 0.256731589104682 
1710	 0.256862503162209 
1711	 0.256543825607645 
1712	 0.255926411646311 
1713	 0.255567345930903 
1714	 0.255747419573145 
1715	 0.255252555841653 
1716	 0.254041489388418 
1717	 0.253566161598729 
1718	 0.253190062191335 
1719	 0.252647419656973 
1720	 0.2525426705649 
1721	 0.252501720179959 
1722	 0.252268364453127 
1723	 0.2519787264046 
1724	 0.25228506197032 
1725	 0.251895112074452 
1726	 0.250284081579063 
1727	 0.249679030185558 
1728	 0.249403677056485 
1729	 0.249200091386769 
1730	 0.250089251170265 
1731	 0.250061375773508 
1732	 0.248977518635204 
1733	 0.248668184827429 
1734	 0.248663755402422 
1735	 0.248292533485155 
1736	 0.248414381021259 
1737	 0.248043558960698 
1738	 0.246488833606991 
1739	 0.245882907083996 
1740	 0.245811101109035 
1741	 0.245616585587087 
1742	 0.245873209208055 
1743	 0.245928016443479 
1744	 0.245797938397054 
1745	 0.245701359593762 
1746	 0.246047705126053 
1747	 0.245565329932141 
1748	 0.244337153804777 
1749	 0.243419063197351 
1750	 0.241876631630919 
1751	 0.241063888517839 
1752	 0.240831454907025 
1753	 0.240512999580294 
1754	 0.240422656238008 
1755	 0.240287751059097 
1756	 0.240583860480011 
1757	 0.24038636716832 
1758	 0.2399256720673 
1759	 0.239444137913349 
1760	 0.238268647553909 
1761	 0.237632687211184 
1762	 0.237740152141612 
1763	 0.237179661886922 
1764	 0.235899509146375 
1765	 0.235658113651676 
1766	 0.235590640156695 
1767	 0.235474309366204 
1768	 0.236527725168179 
1769	 0.236754822169757 
1770	 0.236364693636366 
1771	 0.235922722896733 
1772	 0.23524462300338 
1773	 0.234506969085427 
1774	 0.233172789258575 
1775	 0.232660365956985 
1776	 0.232323618805814 
1777	 0.232407544908517 
1778	 0.233226774952355 
1779	 0.233916916176556 
1780	 0.235257520912639 
1781	 0.235607694581247 
1782	 0.235680159215021 
1783	 0.235547375411289 
1784	 0.234403111207014 
1785	 0.233845994224403 
1786	 0.233529842931293 
1787	 0.232912910461665 
1788	 0.231997675121896 
1789	 0.232060855406284 
1790	 0.232736424254187 
1791	 0.232897950890924 
1792	 0.233394850211243 
1793	 0.233513247995247 
1794	 0.233070170601873 
1795	 0.232942124537378 
1796	 0.232841758895541 
1797	 0.232905062373883 
1798	 0.233221567819905 
1799	 0.233229904594774 
1800	 0.233457162999028 
1801	 0.240028813038533 
1802	 0.241616397131127 
1803	 0.242443559671564 
1804	 0.24314087092409 
1805	 0.244020684125756 
1806	 0.244644292124805 
1807	 0.245000903065907 
1808	 0.245800499014352 
1809	 0.246022516561261 
1810	 0.245922977697031 
1811	 0.244620721145916 
1812	 0.241804154524764 
1813	 0.240083033911389 
1814	 0.239113157596261 
1815	 0.237972140536821 
1816	 0.237344033496635 
1817	 0.237923846499754 
1818	 0.238642955827398 
1819	 0.23957512983567 
1820	 0.239895424545547 
1821	 0.241431721749905 
1822	 0.244214816543286 
1823	 0.246179494403231 
1824	 0.249014992024423 
1825	 0.249597479122013 
1826	 0.248436366836533 
1827	 0.248305305992064 
1828	 0.247474480757718 
1829	 0.245839032204168 
1830	 0.245802608396124 
1831	 0.246193600198285 
1832	 0.244500427384789 
1833	 0.244528485068488 
1834	 0.244686951732904 
1835	 0.245867903758516 
1836	 0.245307799129313 
1837	 0.244385923237144 
1838	 0.243417726049976 
1839	 0.241674552262515 
1840	 0.240705097643373 
1841	 0.24075827432203 
1842	 0.239452576037654 
1843	 0.236803919238584 
1844	 0.236605926719626 
1845	 0.236587716156198 
1846	 0.237314271707611 
1847	 0.237219379472936 
1848	 0.238053988789746 
1849	 0.237725911104428 
1850	 0.235487579940435 
1851	 0.234873819443424 
1852	 0.23522196177983 
1853	 0.233710850359654 
1854	 0.231899688181484 
1855	 0.231280067485756 
1856	 0.229558612487686 
1857	 0.226818697217084 
1858	 0.224232036649809 
1859	 0.223511984815056 
1860	 0.21938570350045 
1861	 0.215803029276252 
1862	 0.214054750349019 
1863	 0.210223825263216 
1864	 0.207638870066961 
1865	 0.205039652832923 
1866	 0.202106640184307 
1867	 0.19959566747207 
1868	 0.197360459299092 
1869	 0.195393647835397 
1870	 0.192429135412356 
1871	 0.187465869046146 
1872	 0.181989199192478 
1873	 0.176862482479887 
1874	 0.172047509621702 
1875	 0.167523571480992 
1876	 0.163711368969707 
1877	 0.158383930663887 
1878	 0.153027544692801 
1879	 0.147021934715415 
1880	 0.14243368481536 
1881	 0.137294582134406 
1882	 0.132663475214607 
1883	 0.13011841451709 
1884	 0.127511416218735 
1885	 0.12586937253792 
1886	 0.124760054137322 
1887	 0.122062288663063 
1888	 0.120548101556635 
1889	 0.117893057265149 
1890	 0.11440203568966 
1891	 0.110088206525152 
1892	 0.106875724779612 
1893	 0.102735885424411 
1894	 9.87511676653658E-02 
1895	 9.50773666947168E-02 
1896	 9.13154482201436E-02 
1897	 8.74509532158912E-02 
1898	 8.45928297100216E-02 
1899	 8.27173010288299E-02 
1900	 8.23044492163221E-02 
1901	 8.20721812439909E-02 
1902	 8.28502840316854E-02 
1903	 8.35658609010655E-02 
1904	 8.37173396125736E-02 
1905	 8.20782984329053E-02 
1906	 8.12732610379382E-02 
1907	 7.95092366666916E-02 
1908	 7.77069156341379E-02 
1909	 7.84530277982727E-02 
1910	 7.79965027546242E-02 
1911	 7.65093324257195E-02 
1912	 7.53723576663858E-02 
1913	 7.43402281185495E-02 
1914	 7.41213673550887E-02 
1915	 7.18683743798612E-02 
1916	 7.17045239990229E-02 
1917	 7.21883533586965E-02 
1918	 6.94412821016338E-02 
1919	 6.95104195799249E-02 
1920	 6.99914597248084E-02 
1921	 0.069908347163154 
1922	 0.07058225061358 
1923	 7.08174663720439E-02 
1924	 6.97725684135101E-02 
1925	 7.04429666354501E-02 
1926	 7.22564676579966E-02 
1927	 7.25077816132779E-02 
1928	 7.45449745286924E-02 
1929	 7.42487484042645E-02 
1930	 7.17911139091171E-02 
1931	 7.05374281605406E-02 
1932	 6.95851459676488E-02 
1933	 6.87336599393951E-02 
1934	 0.06772142087953 
1935	 6.73397010892536E-02 
1936	 6.73442125226963E-02 
1937	 6.72177607797231E-02 
1938	 6.65313035348736E-02 
1939	 6.74076656525286E-02 
1940	 6.69168519264838E-02 
1941	 6.69988635673165E-02 
1942	 6.74776963430178E-02 
1943	 6.83767864526223E-02 
1944	 0.070012808531694 
1945	 7.03497523491997E-02 
1946	 6.93026082017652E-02 
1947	 6.94472748981502E-02 
1948	 6.95477647522471E-02 
1949	 0.069454778563627 
1950	 7.11493407165203E-02 
1951	 7.22789464300733E-02 
1952	 7.29117236429375E-02 
1953	 7.43316792108827E-02 
1954	 7.50822681135696E-02 
1955	 7.65343736215326E-02 
1956	 7.65448612260155E-02 
1957	 7.57438937103968E-02 
1958	 7.47024739917579E-02 
1959	 7.10077537964956E-02 
1960	 7.01450542023359E-02 
1961	 6.95912855373479E-02 
1962	 7.23752341489261E-02 
1963	 7.51924785430372E-02 
1964	 7.73560682527818E-02 
1965	 7.89894176595276E-02 
1966	 7.87941795739097E-02 
1967	 7.85411901115666E-02 
1968	 7.81870508801913E-02 
1969	 7.76915984957506E-02 
1970	 7.74096705428283E-02 
1971	 7.65140044447628E-02 
1972	 7.44423618223749E-02 
1973	 7.36316067713336E-02 
1974	 7.35138101209324E-02 
1975	 7.17739714820708E-02 
1976	 7.23001600335621E-02 
1977	 7.36005912869806E-02 
1978	 7.43719216817929E-02 
1979	 7.62894257001575E-02 
1980	 7.70851431551508E-02 
1981	 7.73199231790085E-02 
1982	 7.72730796370029E-02 
1983	 7.61209902231812E-02 
1984	 0.076069269397541 
1985	 7.67228432292911E-02 
1986	 7.71212726898341E-02 
1987	 7.73168978374015E-02 
1988	 7.87413365836482E-02 
1989	 7.99440041943011E-02 
1990	 7.96173085107976E-02 
1991	 8.22705272736197E-02 
1992	 8.39952106654575E-02 
1993	 8.50877293005003E-02 
1994	 0.086447163556166 
1995	 8.69529261350468E-02 
1996	 8.60844753223139E-02 
1997	 8.55813012666782E-02 
1998	 8.47751705005945E-02 
1999	 0.083942432563857 
2000	 8.20538169350148E-02 
2001	 8.19939238894549E-02 
2002	 8.13022133878303E-02 
2003	 8.08824722959721E-02 
2004	 8.36278647623274E-02 
2005	 8.62704552051254E-02 
2006	 0.088775407340516 
2007	 9.32818662610324E-02 
2008	 9.56930362022914E-02 
2009	 9.63424030374658E-02 
2010	 9.75560865436581E-02 
2011	 9.91616161278321E-02 
2012	 0.099735753861675 
2013	 9.97595947836867E-02 
2014	 9.97222371775016E-02 
2015	 9.71735253341021E-02 
2016	 9.45383970596749E-02 
2017	 9.28991681661309E-02 
2018	 9.12503913638518E-02 
2019	 9.15511057437794E-02 
2020	 9.41490207347382E-02 
2021	 9.61650970937975E-02 
2022	 0.099532567551702 
2023	 0.10153675521629 
2024	 0.10479606947972 
2025	 0.105127987341834 
2026	 0.101417391164126 
2027	 0.101125229053296 
2028	 0.101016521954793 
2029	 0.100386369756635 
2030	 0.10278190702435 
2031	 0.105882563903624 
2032	 0.107209417414979 
2033	 0.107117974539183 
2034	 0.107668181427356 
2035	 0.108198569506331 
2036	 0.108160648141357 
2037	 0.108184925251809 
2038	 0.107902230502392 
2039	 0.107231700041593 
2040	 0.106047846067668 
2041	 0.104573021120476 
2042	 0.101634191906973 
2043	 0.101607006795054 
2044	 9.98250803236192E-02 
2045	 0.100648360106131 
2046	 0.104584622153633 
2047	 0.106018292284782 
2048	 0.108406808048638 
2049	 0.108336163836488 
2050	 0.105834394159968 
2051	 0.104476514364316 
2052	 0.101164175757541 
2053	 9.97265065676899E-02 
2054	 9.93270296407247E-02 
2055	 9.96713587802528E-02 
2056	 0.100082574600354 
2057	 0.103107213915054 
2058	 0.10688260124332 
2059	 0.106757106097968 
2060	 0.109049111913899 
2061	 0.111351948793574 
2062	 0.114079299569994 
2063	 0.119674804981363 
2064	 0.121312268286793 
2065	 0.12096577181665 
2066	 0.120622443551339 
2067	 0.117652564501292 
2068	 0.115348227489142 
2069	 0.113090671534702 
2070	 0.11157776731633 
2071	 0.108947966277869 
2072	 0.107572880514181 
2073	 0.110375167503422 
2074	 0.111993996106301 
2075	 0.113273354506093 
2076	 0.116269268413276 
2077	 0.116548403666436 
2078	 0.113349013418285 
2079	 0.11381952332105 
2080	 0.115395100994679 
2081	 0.116311223117756 
2082	 0.119045851874066 
2083	 0.120493466068751 
2084	 0.120428247993602 
2085	 0.120955303249011 
2086	 0.122788335431842 
2087	 0.122806388456905 
2088	 0.120736541860864 
2089	 0.119680257336285 
2090	 0.120074550351256 
2091	 0.120891536551443 
2092	 0.121375539831035 
2093	 0.123556676374939 
2094	 0.124695308689071 
2095	 0.124509068005188 
2096	 0.124676118569361 
2097	 0.125408162093066 
2098	 0.126331693345947 
2099	 0.127356146111041 
2100	 0.127709241129963 
2101	 0.127253280521407 
2102	 0.127813022597539 
2103	 0.129138080807784 
2104	 0.129594823900141 
2105	 0.128165880394779 
2106	 0.126365859064155 
2107	 0.12568175339196 
2108	 0.121856028892039 
2109	 0.12166494358206 
2110	 0.126283104497856 
2111	 0.126951483638555 
2112	 0.125337189616449 
2113	 0.126409725214597 
2114	 0.128353630845273 
2115	 0.129410946163972 
2116	 0.132202617103141 
2117	 0.133614684661483 
2118	 0.133770224292616 
2119	 0.132640837407691 
2120	 0.133362398573947 
2121	 0.13165810596543 
2122	 0.129494359038234 
2123	 0.125001167400513 
2124	 0.123516680940289 
2125	 0.121076326268601 
2126	 0.122432331479882 
2127	 0.128574571158996 
2128	 0.131652460803662 
2129	 0.137542755401503 
2130	 0.138272414602467 
2131	 0.132490282688215 
2132	 0.131545659145537 
2133	 0.129388155307479 
2134	 0.129997680056052 
2135	 0.138377175072405 
2136	 0.141117189106148 
2137	 0.145208136466244 
2138	 0.140920844146001 
2139	 0.137356990675064 
2140	 0.127794320938053 
2141	 0.125131449909305 
2142	 0.124269077170596 
2143	 0.123057360988841 
2144	 0.1251672549079 
2145	 0.124826646048402 
2146	 0.121304928128868 
2147	 0.12084391173764 
2148	 0.120949293134123 
2149	 0.122816068582293 
2150	 0.128448578179645 
2151	 0.13138498572257 
2152	 0.135120082765723 
2153	 0.137483473739845 
2154	 0.137755823872194 
2155	 0.136347203832723 
2156	 0.141211189740029 
2157	 0.141973110648031 
2158	 0.144872262705207 
2159	 0.150530803735735 
2160	 0.152678501895875 
2161	 0.153313444009173 
2162	 0.153580167831758 
2163	 0.152967356425101 
2164	 0.151707628005858 
2165	 0.148363447072895 
2166	 0.147134551147678 
2167	 0.146985607321787 
2168	 0.145131973837808 
2169	 0.143179757825946 
2170	 0.141922767243574 
2171	 0.138953900705293 
2172	 0.137490233151395 
2173	 0.137570071625526 
2174	 0.138409594103286 
2175	 0.136909639509617 
2176	 0.13721382958609 
2177	 0.13748166001906 
2178	 0.13730671836454 
2179	 0.138630521718924 
2180	 0.141195562778379 
2181	 0.143152611887506 
2182	 0.14566772556989 
2183	 0.148294641801663 
2184	 0.152408191156777 
2185	 0.153660922330823 
2186	 0.154505706976714 
2187	 0.153583077548513 
2188	 0.1480619744597 
2189	 0.145821513023466 
2190	 0.145270552681371 
2191	 0.143633972060732 
2192	 0.142451253441956 
2193	 0.141544998332414 
2194	 0.13895915223702 
2195	 0.138168761606247 
2196	 0.139869025784567 
2197	 0.140664797460355 
2198	 0.141230762126483 
2199	 0.142723714823014 
2200	 0.142684692861328 
2201	 0.140921252760286 
2202	 0.140625203914338 
2203	 0.140442659874354 
2204	 0.140229877064121 
2205	 0.13976838017613 
2206	 0.14129104817004 
2207	 0.144037614386208 
2208	 0.145874982766439 
2209	 0.149103772277944 
2210	 0.151197222718113 
2211	 0.153834892031683 
2212	 0.153287154915855 
2213	 0.150134424767968 
2214	 0.148234641570568 
2215	 0.142610007541569 
2216	 0.140473967172335 
2217	 0.143215315441624 
2218	 0.142301274976237 
2219	 0.143296713320076 
2220	 0.143663573739164 
2221	 0.141701132130339 
2222	 0.137103525221923 
2223	 0.136639941867985 
2224	 0.13572250722072 
2225	 0.135639924293523 
2226	 0.139118135674997 
2227	 0.139397863831451 
2228	 0.137045801974413 
2229	 0.137493232673 
2230	 0.138850595551521 
2231	 0.139736785287011 
2232	 0.14213029963088 
2233	 0.14344410975097 
2234	 0.145129550757016 
2235	 0.144838502366049 
2236	 0.141207947164672 
2237	 0.140275001477108 
2238	 0.138259354617883 
2239	 0.138165414662541 
2240	 0.14197958958397 
2241	 0.145797744729588 
2242	 0.145469075204034 
2243	 0.141963672662896 
2244	 0.130650057861443 
2245	 0.123973853176151 
2246	 0.121444756982937 
2247	 0.119903542387632 
2248	 0.121448610840932 
2249	 0.130333381204607 
2250	 0.132139290875371 
2251	 0.132652168172602 
2252	 0.132368408546253 
2253	 0.127977237893239 
2254	 0.128081575697638 
2255	 0.131421810176527 
2256	 0.131088808214183 
2257	 0.131628617723479 
2258	 0.129327469978515 
2259	 0.120378929646361 
2260	 0.117269534092927 
2261	 0.116414043712942 
2262	 0.116255117767833 
2263	 0.120248118143005 
2264	 0.12204606475199 
2265	 0.122357161457996 
2266	 0.123326810502002 
2267	 0.1249963639006 
2268	 0.124856089427486 
2269	 0.126473794194665 
2270	 0.129779332777311 
2271	 0.1296661851521 
2272	 0.127804103894485 
2273	 0.124400389747428 
2274	 0.11628736983757 
2275	 0.109240630868909 
2276	 0.108023550297748 
2277	 0.107843046545102 
2278	 0.110647617242891 
2279	 0.112452164988884 
2280	 0.117341021632993 
2281	 0.118545098216375 
2282	 0.118859291916987 
2283	 0.118089438909436 
2284	 0.114767228397528 
2285	 0.1123134848051 
2286	 0.107466292563715 
2287	 0.106105491294093 
2288	 0.107310816256563 
2289	 0.107663421802667 
2290	 0.110735974510474 
2291	 0.110598779209719 
2292	 0.106599277334344 
2293	 0.106905347316006 
2294	 0.109012550488069 
2295	 0.109460890965742 
2296	 0.111433034983335 
2297	 0.11299966467919 
2298	 0.112154485653686 
2299	 0.113519042694702 
2300	 0.119007561233285 
2301	 0.120218202189649 
2302	 0.12108823951219 
2303	 0.116760125498652 
2304	 0.114105127463195 
2305	 0.114118500369358 
2306	 0.112360427516392 
2307	 0.113750513543198 
2308	 0.108634366684897 
2309	 9.93659344247652E-02 
2310	 9.35662052951103E-02 
2311	 0.091077063722632 
2312	 9.68111939565982E-02 
2313	 0.107597102345412 
2314	 0.118959596089087 
2315	 0.124293156951835 
2316	 0.125568810591693 
2317	 0.120770549961144 
2318	 0.116797635556771 
2319	 0.109163345454785 
2320	 0.10521468510608 
2321	 0.102180400361865 
2322	 9.63892392503843E-02 
2323	 8.66913751989185E-02 
2324	 8.31745064470771E-02 
2325	 7.98767569444225E-02 
2326	 0.079818589447877 
2327	 8.89210375151926E-02 
2328	 9.30816331124283E-02 
2329	 9.54619266427195E-02 
2330	 9.94139165492253E-02 
2331	 0.103570802179002 
2332	 0.106153628103839 
2333	 0.107927287658079 
2334	 0.10967647677457 
2335	 0.112778096908896 
2336	 0.112724841699063 
2337	 0.110034555712466 
2338	 0.108959678102493 
2339	 0.103014673504061 
2340	 0.10166315630409 
2341	 0.10667064391143 
2342	 0.105702885336166 
2343	 0.107733418626473 
2344	 0.110242023581719 
2345	 0.106097512104418 
2346	 0.109459728989044 
2347	 0.107233878486677 
2348	 0.107224700891638 
2349	 0.107891443300082 
2350	 0.105947155918682 
2351	 0.107740503348358 
2352	 0.104865768269997 
2353	 0.104884195786718 
2354	 0.114547796942263 
2355	 0.119084742880254 
2356	 0.12150504628112 
2357	 0.131521790289725 
2358	 0.130930750248303 
2359	 0.127081852155295 
2360	 0.127135559343842 
2361	 0.116937017695385 
2362	 0.102471710241106 
2363	 9.79356481060739E-02 
2364	 0.101654402462869 
2365	 9.85975334480778E-02 
2366	 0.100598828393546 
2367	 0.107510700752292 
2368	 0.103872796196185 
2369	 0.101961500418228 
2370	 9.91726360219922E-02 
2371	 9.90237746378989E-02 
2372	 9.82217878955778E-02 
2373	 9.36403763333676E-02 
2374	 0.096483123564664 
2375	 8.74892711678138E-02 
2376	 8.32251447573926E-02 
2377	 8.85944006509089E-02 
2378	 8.65224571918987E-02 
2379	 9.21702982529651E-02 
2380	 8.30057796103021E-02 
2381	 7.79181760643135E-02 
2382	 9.28692256256059E-02 
2383	 9.83681555934122E-02 
2384	 0.108572952731428 
2385	 0.106232237818043 
2386	 8.34767452065265E-02 
2387	 0.07567605203681 
2388	 6.88790695785844E-02 
2389	 6.57696522994341E-02 
2390	 7.46071910178716E-02 
2391	 7.63599756912228E-02 
2392	 6.85630593946778E-02 
2393	 7.07623785248811E-02 
2394	 8.19436638866084E-02 
2395	 8.83152949263236E-02 
2396	 0.108481618704162 
2397	 0.103189558982126 
2398	 7.31736236207348E-02 
2399	 6.09963285890753E-02 
2400	 3.30266667487281E-02 
2401	 2.84083165792663E-02 
2402	 5.49774715029983E-02 
2403	 6.74456365349082E-02 
2404	 8.42270797622775E-02 
2405	 9.13310429203097E-02 
2406	 8.78774598013005E-02 
2407	 8.44278914433785E-02 
2408	 7.41565650112955E-02 
2409	 7.27220906413706E-02 
2410	 7.81483348660643E-02 
2411	 7.86989049641066E-02 
2412	 8.06896121733982E-02 
2413	 7.98231498307206E-02 
2414	 7.63623140489831E-02 
2415	 6.61895468468567E-02 
2416	 4.80821290793667E-02 
2417	 4.81638999037541E-02 
2418	 5.02900153505755E-02 
2419	 5.11735051065412E-02 
2420	 6.71704862630962E-02 
2421	 6.73950081625982E-02 
2422	 4.86661312601694E-02 
2423	 5.50575660115839E-02 
2424	 7.54656305763931E-02 
2425	 8.82426909758893E-02 
2426	 0.117657378319054 
2427	 0.118071828273751 
2428	 9.72826463476137E-02 
2429	 8.74949805150582E-02 
2430	 6.47100942805783E-02 
2431	 5.03488027051004E-02 
2432	 4.95830328472502E-02 
2433	 3.88727275378338E-02 
2434	 3.05216426959983E-03 
2435	 0.013805533269458 
2436	 5.35012238015441E-02 
2437	 7.09941373494445E-02 
2438	 0.120054034746943 
2439	 0.139545360029818 
2440	 0.119752053170821 
2441	 0.115018626025518 
2442	 0.112493509891542 
2443	 0.13200886068031 
2444	 0.145309751268129 
2445	 0.166609831877742 
2446	 0.1627843817493 
2447	 0.143095482074173 
2448	 0.139020995586541 
2449	 0.133041381846056 
2450	 0.123058381508835 
2451	 0.113037994120619 
2452	 8.30686529757306E-02 
2453	 5.48196379306589E-02 
2454	 0.051093704992504 
2455	 4.93318151592592E-02 
2456	 5.94015893711555E-02 
2457	 7.43857081865417E-02 
2458	 7.32406601321078E-02 
2459	 8.07681015882105E-02 
2460	 6.96363778994315E-02 
2461	 4.83488797384285E-02 
2462	 5.00794182289839E-02 
2463	 6.82917864781583E-02 
2464	 8.36290746829575E-02 
2465	 9.99201659278437E-02 
2466	 9.89349571781047E-02 
2467	 5.71426939744539E-02 
2468	 5.41612839323429E-02 
2469	 0.052195699015 
2470	 4.14299286438424E-02 
2471	 4.97755597220571E-02 
2472	 4.55037804657563E-02 
2473	 0.043100181658955 
2474	 4.43107406156482E-02 
2475	 0.04400751802547 
2476	 5.07093931257387E-02 
2477	 7.33946450033479E-02 
2478	 7.81395170130631E-02 
2479	 8.05591901753614E-02 
2480	 5.06401440014492E-02 
2481	 8.5817225244136E-04 
2482	 3.92473077854421E-03 
2483	 6.38252066510968E-03 
2484	 2.41546917933746E-02 
2485	 4.39011114322622E-02 
2486	 2.18327569328945E-02 
2487	 5.42991845035893E-03 
2488	-2.78583172564067E-02 
2489	-5.53365653915446E-02 
2490	-5.38606184243828E-02 
2491	-7.58960008982061E-02 
2492	-0.065621233203904 
2493	-4.36312836863547E-02 
2494	-1.52654537956133E-02 
2495	 2.74502128737939E-02 
2496	 2.80093846733797E-02 
2497	 4.15117468866928E-02 
2498	 4.55046182370963E-02 
2499	 3.59445234026382E-02 
2500	 3.98477914419178E-02 
