Wavelength	MAC_ARB_099_592_210428_L00001.asd
350	 4.09967600715305E-02 
351	 8.55858987914511E-03 
352	 2.75879952545378E-02 
353	 0.323470376472005 
354	-6.62801081377927E-02 
355	-0.375822189879486 
356	-0.212210592253181 
357	-0.120031636361243 
358	-8.94528277404507E-02 
359	-0.112115088623134 
360	-0.150726814597733 
361	-5.36583374075373E-02 
362	-2.79030269953223E-02 
363	-2.52755876252212E-02 
364	 3.21316904732313E-02 
365	 9.08371791055379E-02 
366	 6.53849132422268E-02 
367	-9.1957778910091E-04 
368	 6.23814075395346E-02 
369	 6.50811547190753E-02 
370	 5.66046060915619E-02 
371	 8.61025075981634E-02 
372	 0.057978025079841 
373	 3.53552057536715E-02 
374	 4.39811655038691E-02 
375	 7.91908834610637E-02 
376	 8.82742562567811E-02 
377	 7.45956077365676E-02 
378	 5.39470801840765E-02 
379	 4.63571633214071E-02 
380	 5.83273734925015E-02 
381	 6.12585433623683E-02 
382	 4.01153382696955E-02 
383	 3.47523053799453E-02 
384	 4.61993618547088E-02 
385	 0.058656863012409 
386	 5.19656893493466E-02 
387	 0.047968562345635 
388	 5.14942823232138E-02 
389	 6.31272315817054E-02 
390	 7.95478408120453E-02 
391	 6.65164402405645E-02 
392	 5.07592510875965E-02 
393	 5.50038949103622E-02 
394	 6.21116056384306E-02 
395	 6.49867591823035E-02 
396	 6.74267658134664E-02 
397	 7.41643434595435E-02 
398	 6.26174588223075E-02 
399	 5.43539181431359E-02 
400	 5.54015958895733E-02 
401	 0.051687444406042 
402	 5.74730279313473E-02 
403	 5.94167555248233E-02 
404	 0.049506654005488 
405	 4.29521911251157E-02 
406	 4.53429255039374E-02 
407	 5.39621533763736E-02 
408	 6.11401422631919E-02 
409	 5.79167794232281E-02 
410	 6.14898026681415E-02 
411	 6.96096109308269E-02 
412	 5.88914099501847E-02 
413	 0.053434756207976 
414	 5.50651381423008E-02 
415	 5.93542568423953E-02 
416	 6.05840202433261E-02 
417	 0.058086869803194 
418	 5.57515962407956E-02 
419	 5.86769042645926E-02 
420	 6.49973273581219E-02 
421	 0.065645018420864 
422	 6.03334140688259E-02 
423	 5.96463406706693E-02 
424	 6.01970017860253E-02 
425	 5.96560734281304E-02 
426	 5.78715344832756E-02 
427	 6.08861678946218E-02 
428	 6.24053893475433E-02 
429	 6.15130680101574E-02 
430	 6.05251936129172E-02 
431	 6.20289555596249E-02 
432	 6.32315210764591E-02 
433	 6.30057511414073E-02 
434	 6.34638603575147E-02 
435	 6.16007942608359E-02 
436	 5.91231487626384E-02 
437	 5.87517282633019E-02 
438	 6.25003313283714E-02 
439	 6.49549068967027E-02 
440	 6.41178060174497E-02 
441	 6.10718399478552E-02 
442	 6.16709980746624E-02 
443	 6.41371900119387E-02 
444	 6.56796179543533E-02 
445	 6.36059520082791E-02 
446	 6.22637884626741E-02 
447	 6.25666014724001E-02 
448	 0.063949031349546 
449	 6.53029599300719E-02 
450	 0.065293879806598 
451	 6.44174928714119E-02 
452	 6.47577992041039E-02 
453	 6.46391212285666E-02 
454	 6.51255223009191E-02 
455	 6.64423182010836E-02 
456	 6.54765030350709E-02 
457	 6.45612300212001E-02 
458	 6.52341109080816E-02 
459	 6.76132667090566E-02 
460	 6.48492968240842E-02 
461	 6.40558451844157E-02 
462	 0.066372825172021 
463	 6.41281813875291E-02 
464	 6.31140275885847E-02 
465	 6.43487712115053E-02 
466	 6.65416905027429E-02 
467	 6.46063406299174E-02 
468	 0.065061527690408 
469	 6.69910555267561E-02 
470	 0.065270916438795 
471	 6.39978225362861E-02 
472	 6.27238143378315E-02 
473	 6.17233561347972E-02 
474	 6.37612740013506E-02 
475	 6.37513095189916E-02 
476	 6.27961290884533E-02 
477	 6.33828837388849E-02 
478	 6.41339858620448E-02 
479	 6.45478485030755E-02 
480	 6.47362879528248E-02 
481	 6.53050822957211E-02 
482	 6.57879810840184E-02 
483	 6.55384946725793E-02 
484	 6.46209833287828E-02 
485	 6.49938881002475E-02 
486	 6.45371363156733E-02 
487	 6.45022823955682E-02 
488	 6.66644806137317E-02 
489	 6.47979648335971E-02 
490	 6.38253597502691E-02 
491	 6.51928140666901E-02 
492	 6.44835957463249E-02 
493	 0.065379315245726 
494	 6.71510072088898E-02 
495	 6.78901500603484E-02 
496	 6.54218303065736E-02 
497	 6.46554231381125E-02 
498	 6.57747050999443E-02 
499	 6.57144960282078E-02 
500	 0.066182517648547 
501	 6.80988912361074E-02 
502	 0.070413358752557 
503	 0.067998106113002 
504	 6.76624663402908E-02 
505	 6.88894879424928E-02 
506	 6.90375140736423E-02 
507	 0.069680282160769 
508	 7.11313599460118E-02 
509	 7.27507340648386E-02 
510	 7.30161135992454E-02 
511	 7.29791076893085E-02 
512	 7.43069787778036E-02 
513	 7.71557220721697E-02 
514	 7.68229190961882E-02 
515	 7.76338294877057E-02 
516	 7.99827820881584E-02 
517	 8.18575998513372E-02 
518	 8.16325772598137E-02 
519	 0.082919277830571 
520	 8.64510608080345E-02 
521	 8.71083518296772E-02 
522	 8.86452357674666E-02 
523	 9.14074072804872E-02 
524	 9.44473578959913E-02 
525	 9.60957934273076E-02 
526	 9.78723118403231E-02 
527	 0.100222413503059 
528	 0.102457651850599 
529	 0.104445229628453 
530	 0.105678900014322 
531	 0.106241197166257 
532	 0.107823106492091 
533	 0.109529140666646 
534	 0.110928194640264 
535	 0.111907588802015 
536	 0.112995871393244 
537	 0.113851130004652 
538	 0.114486385235436 
539	 0.115563629703687 
540	 0.117024115989285 
541	 0.11795228602947 
542	 0.117787899142004 
543	 0.118482262382792 
544	 0.119285706729501 
545	 0.119851696758929 
546	 0.12027367573068 
547	 0.120754975610839 
548	 0.12097797931385 
549	 0.120903889840533 
550	 0.121485649534207 
551	 0.121452538184634 
552	 0.121319467568184 
553	 0.122067516785437 
554	 0.121259484344121 
555	 0.120813778262014 
556	 0.121413857376282 
557	 0.121448966935309 
558	 0.120394451162223 
559	 0.11929043805575 
560	 0.11908586789939 
561	 0.118280409964307 
562	 0.117082493116209 
563	 0.115808553359938 
564	 0.114791858065084 
565	 0.113550720189247 
566	 0.112278094116293 
567	 0.111107472045586 
568	 0.109756958874219 
569	 0.108260091477158 
570	 0.107206483416773 
571	 0.107080885180628 
572	 0.105713855229671 
573	 0.104089958677965 
574	 0.102791322133517 
575	 0.10143448914227 
576	 9.99763529719342E-02 
577	 9.87716166301571E-02 
578	 9.80594433602442E-02 
579	 9.71639376996279E-02 
580	 9.64995427166726E-02 
581	 9.61640294447845E-02 
582	 0.095922861563108 
583	 0.094737135633619 
584	 9.35382343076315E-02 
585	 9.29817211298457E-02 
586	 9.24665223885664E-02 
587	 9.18437707466658E-02 
588	 9.13743645713438E-02 
589	 9.13631932245083E-02 
590	 9.10935708181409E-02 
591	 9.09607087271952E-02 
592	 9.07808522015996E-02 
593	 8.95687713454791E-02 
594	 8.97151579781875E-02 
595	 8.97573844067065E-02 
596	 8.83824879274559E-02 
597	 8.83875013738252E-02 
598	 8.81804715126015E-02 
599	 8.78148912115547E-02 
600	 8.83193994857288E-02 
601	 8.79486042803414E-02 
602	 8.72102112913386E-02 
603	 8.67315519723626E-02 
604	 8.67822434769678E-02 
605	 8.63703625269462E-02 
606	 8.57463478454045E-02 
607	 8.54153347589737E-02 
608	 8.43386138130862E-02 
609	 8.40282672676473E-02 
610	 8.44123564097469E-02 
611	 8.35763804699181E-02 
612	 8.23839031747229E-02 
613	 8.12316917825365E-02 
614	 8.04201159861735E-02 
615	 8.02116606345815E-02 
616	 8.04278735349571E-02 
617	 8.04505711214817E-02 
618	 7.96110480733448E-02 
619	 0.079358456317543 
620	 7.89880062647959E-02 
621	 7.81821134848106E-02 
622	 7.76989837289007E-02 
623	 7.78121229778246E-02 
624	 7.79797477095547E-02 
625	 7.76542449682148E-02 
626	 7.77607745541074E-02 
627	 7.77860837133571E-02 
628	 7.75704354423895E-02 
629	 7.73392698820386E-02 
630	 7.71122753807438E-02 
631	 7.70183671529687E-02 
632	 7.71020876513863E-02 
633	 7.71755789022521E-02 
634	 7.72778396787655E-02 
635	 7.71431254574276E-02 
636	 7.64659376997383E-02 
637	 7.57068686016241E-02 
638	 0.075046658549223 
639	 7.46479263663889E-02 
640	 7.46983364128096E-02 
641	 7.43013434930636E-02 
642	 7.32701529524962E-02 
643	 7.19711273604657E-02 
644	 7.19213702480494E-02 
645	 7.18811732309666E-02 
646	 7.11336439441304E-02 
647	 6.96127396246626E-02 
648	 6.95302980045021E-02 
649	 6.99550144208893E-02 
650	 6.98984465972734E-02 
651	 6.92193813491718E-02 
652	 0.068420677859071 
653	 6.80869374723856E-02 
654	 6.85643979045016E-02 
655	 6.90768414741069E-02 
656	 6.82403715427509E-02 
657	 6.65859598548463E-02 
658	 6.65032513714323E-02 
659	 6.60917661421927E-02 
660	 6.59506706910267E-02 
661	 6.64821680406729E-02 
662	 6.61867665592219E-02 
663	 6.60766252680243E-02 
664	 6.59886462204764E-02 
665	 6.53240787157907E-02 
666	 6.47679370547319E-02 
667	 6.44646403371385E-02 
668	 6.46048553293099E-02 
669	 6.55208367376786E-02 
670	 6.60213109558284E-02 
671	 6.54945487495686E-02 
672	 6.42034907876127E-02 
673	 6.46997861153884E-02 
674	 6.52383956935284E-02 
675	 6.55086151303025E-02 
676	 6.61063771580978E-02 
677	 6.58761377655956E-02 
678	 6.59363569394023E-02 
679	 6.67227704305696E-02 
680	 6.69307452734711E-02 
681	 6.72903582821868E-02 
682	 6.80758650006025E-02 
683	 6.91932611029433E-02 
684	 6.95181888160151E-02 
685	 7.02639425389508E-02 
686	 7.15845500536266E-02 
687	 7.26910672375581E-02 
688	 7.40260097247386E-02 
689	 7.55919066108274E-02 
690	 0.077546866591079 
691	 8.06018720130492E-02 
692	 8.37207224898086E-02 
693	 8.73203414456504E-02 
694	 9.21508579984859E-02 
695	 9.76901414978902E-02 
696	 0.103513084101345 
697	 0.109594870909361 
698	 0.116337726144049 
699	 0.12378130099929 
700	 0.131668185596987 
701	 0.13987641172179 
702	 0.148792905688816 
703	 0.157811960091166 
704	 0.166921168010799 
705	 0.176375906755882 
706	 0.186318961860336 
707	 0.196207232285686 
708	 0.205739867347491 
709	 0.214946279417862 
710	 0.224304368862895 
711	 0.233643066786126 
712	 0.242913526827835 
713	 0.253018896868706 
714	 0.262030239501861 
715	 0.270644094161112 
716	 0.280475036379998 
717	 0.289677586507948 
718	 0.298380375154936 
719	 0.30680647382989 
720	 0.315107130031038 
721	 0.323029506968359 
722	 0.330991939677193 
723	 0.339108510297583 
724	 0.346133833879177 
725	 0.352777370401616 
726	 0.359484516382547 
727	 0.366347708502109 
728	 0.372079136272631 
729	 0.37744835232277 
730	 0.382949565897754 
731	 0.388495830692175 
732	 0.39313934236376 
733	 0.397370057363192 
734	 0.40170604234657 
735	 0.405743711425764 
736	 0.409244014349788 
737	 0.412419811684049 
738	 0.415619147709756 
739	 0.418408314902275 
740	 0.420776482305674 
741	 0.423037359727037 
742	 0.425789139732195 
743	 0.427805993321365 
744	 0.42939256388993 
745	 0.431035631151954 
746	 0.432763063949065 
747	 0.434378287272069 
748	 0.43573478582586 
749	 0.436738402199899 
750	 0.43741694392409 
751	 0.437901654734025 
752	 0.438423274097864 
753	 0.439260038140032 
754	 0.439804243924094 
755	 0.440215084360298 
756	 0.440667996345573 
757	 0.441008630381803 
758	 0.441560338386343 
759	 0.441915802581849 
760	 0.441689242506961 
761	 0.441926516811286 
762	 0.442508075783714 
763	 0.442990341394968 
764	 0.442796029363477 
765	 0.442468737127125 
766	 0.442271243757917 
767	 0.442375077141428 
768	 0.442906986089569 
769	 0.442967605546209 
770	 0.442819666032116 
771	 0.442882389366728 
772	 0.44269201789733 
773	 0.442612027691385 
774	 0.442757782560946 
775	 0.443047636469801 
776	 0.443320675369659 
777	 0.443112534757355 
778	 0.442593543064737 
779	 0.442721054206711 
780	 0.442983524826143 
781	 0.443010371260966 
782	 0.442785761338667 
783	 0.443170724678628 
784	 0.443328309336857 
785	 0.443397098382717 
786	 0.443748786667945 
787	 0.443737033806987 
788	 0.443676128243379 
789	 0.443762960925894 
790	 0.444002192800023 
791	 0.443958241055072 
792	 0.44366631565721 
793	 0.443406632700304 
794	 0.443718333302447 
795	 0.443867920978414 
796	 0.443768024340719 
797	 0.443615814120697 
798	 0.443929389401463 
799	 0.443766111092354 
800	 0.443318968203907 
801	 0.443327655238956 
802	 0.443904557095889 
803	 0.44421518939121 
804	 0.444033405758444 
805	 0.443853313969595 
806	 0.444395185621879 
807	 0.44454891669073 
808	 0.444086281690393 
809	 0.445009554347043 
810	 0.444792824084442 
811	 0.444278144899258 
812	 0.444634173800812 
813	 0.444542381858173 
814	 0.444645123374423 
815	 0.444930473813229 
816	 0.44506953039653 
817	 0.445084926414844 
818	 0.445044100993089 
819	 0.445131798035946 
820	 0.445540562395242 
821	 0.445140321479242 
822	 0.444947514355852 
823	 0.445413038124104 
824	 0.445472949446579 
825	 0.445388714356459 
826	 0.445140447980318 
827	 0.44480330520709 
828	 0.444882774744426 
829	 0.444924178640576 
830	 0.445041121786946 
831	 0.44537577375478 
832	 0.444916153526756 
833	 0.444409621507992 
834	 0.444265238318866 
835	 0.444531354013858 
836	 0.445388588779918 
837	 0.445335125226512 
838	 0.444377185011157 
839	 0.444564504058275 
840	 0.44519937084384 
841	 0.445608323162426 
842	 0.445472335035278 
843	 0.445224856952296 
844	 0.445094771060497 
845	 0.445335127852723 
846	 0.445876791007053 
847	 0.445657689502057 
848	 0.445449276428263 
849	 0.445845378142655 
850	 0.446821550597455 
851	 0.445690375273035 
852	 0.44543126544882 
853	 0.445998656662932 
854	 0.445150415773605 
855	 0.445815428189584 
856	 0.446497703896982 
857	 0.44616658481879 
858	 0.445128750529783 
859	 0.445656292720636 
860	 0.446329878834599 
861	 0.446125253599728 
862	 0.446134660741939 
863	 0.445913026639378 
864	 0.445755403254036 
865	 0.445960466464207 
866	 0.446404159867932 
867	 0.446189537264709 
868	 0.445768101044219 
869	 0.44591032410207 
870	 0.446268141290662 
871	 0.446882322473967 
872	 0.447516209474032 
873	 0.447778601782046 
874	 0.447331083216562 
875	 0.44688422240031 
876	 0.446773865880285 
877	 0.446904412445886 
878	 0.447057843886287 
879	 0.446701530170391 
880	 0.44606922643223 
881	 0.446135836428851 
882	 0.445202426557769 
883	 0.445250529700226 
884	 0.446832217549687 
885	 0.447398620571665 
886	 0.446571729242577 
887	 0.445496136080144 
888	 0.445289738931935 
889	 0.446134191971317 
890	 0.445618483946914 
891	 0.44574367089656 
892	 0.447767970786122 
893	 0.446782873867534 
894	 0.446810793981183 
895	 0.446991054589351 
896	 0.445936582252462 
897	 0.447442263496987 
898	 0.447756241546449 
899	 0.447044644045496 
900	 0.446884127206064 
901	 0.445180182180665 
902	 0.444549685600951 
903	 0.445900924640581 
904	 0.448150598233419 
905	 0.44659719257944 
906	 0.445561206611255 
907	 0.445936489218873 
908	 0.445714227387508 
909	 0.446618094137533 
910	 0.446728155448769 
911	 0.446146499118784 
912	 0.446856688025227 
913	 0.446670804711857 
914	 0.446890408548826 
915	 0.447069505667652 
916	 0.444914343121527 
917	 0.445827211866939 
918	 0.446608986556765 
919	 0.445517717814739 
920	 0.444599322236397 
921	 0.445288626382333 
922	 0.445317308391152 
923	 0.44442676088027 
924	 0.446144375079814 
925	 0.44640940682426 
926	 0.445972127844825 
927	 0.445511736516998 
928	 0.443921790137674 
929	 0.445755547457542 
930	 0.446566870432653 
931	 0.444214826082939 
932	 0.444716456501367 
933	 0.444994993331496 
934	 0.443660617212346 
935	 0.441814151455688 
936	 0.444511477251215 
937	 0.445880508398531 
938	 0.444806608518458 
939	 0.442629222799515 
940	 0.442780635538092 
941	 0.442879272674703 
942	 0.442746344226209 
943	 0.442703614555895 
944	 0.442843166327348 
945	 0.443091595425269 
946	 0.443037905545292 
947	 0.442289140555249 
948	 0.440639237012019 
949	 0.440781002478779 
950	 0.441809771081576 
951	 0.442146113203705 
952	 0.441428902084888 
953	 0.439352652116155 
954	 0.438445171927732 
955	 0.440224576223872 
956	 0.442269417843803 
957	 0.440787531451356 
958	 0.438394210028502 
959	 0.438005413766995 
960	 0.438813569016777 
961	 0.436457919742341 
962	 0.434540134368933 
963	 0.435528494302435 
964	 0.435318588403606 
965	 0.43575862017941 
966	 0.436477828187565 
967	 0.436790006914622 
968	 0.436440955928966 
969	 0.437697791702699 
970	 0.436932556868873 
971	 0.433994063418295 
972	 0.436004791577876 
973	 0.437691086951685 
974	 0.43597324975699 
975	 0.432762014633998 
976	 0.435453077937365 
977	 0.437657063885932 
978	 0.436033609810147 
979	 0.433719574047531 
980	 0.439064733269496 
981	 0.436895099441688 
982	 0.434253541530709 
983	 0.435620535059816 
984	 0.438205999811646 
985	 0.435720147677978 
986	 0.434212558202214 
987	 0.435006656230805 
988	 0.434410414212841 
989	 0.435678737299242 
990	 0.432569557034818 
991	 0.429359892539858 
992	 0.434805148822478 
993	 0.436705694717587 
994	 0.437487330489577 
995	 0.43765568534575 
996	 0.436457680276159 
997	 0.433908690844005 
998	 0.434102539331126 
999	 0.436720888518126 
1000	 0.438358629926782 
1001	 0.437505735299063 
1002	 0.439168707629859 
1003	 0.439639920378061 
1004	 0.440526101277047 
1005	 0.441001371600751 
1006	 0.440300702706009 
1007	 0.439687906562895 
1008	 0.439792574055496 
1009	 0.440410428489695 
1010	 0.440341475229515 
1011	 0.440702276808577 
1012	 0.44145115686871 
1013	 0.442541931511877 
1014	 0.4427038267012 
1015	 0.443194272636428 
1016	 0.442781951654849 
1017	 0.441008283520362 
1018	 0.439684390636329 
1019	 0.438915828406586 
1020	 0.439138237448275 
1021	 0.440701289038338 
1022	 0.442214396649502 
1023	 0.44289735198348 
1024	 0.443666725751257 
1025	 0.444624893551396 
1026	 0.444930480335963 
1027	 0.444762827304535 
1028	 0.445611764579481 
1029	 0.445960076906848 
1030	 0.446212407458492 
1031	 0.446965097633785 
1032	 0.446533526876916 
1033	 0.446116156941145 
1034	 0.446542803019556 
1035	 0.446528671595128 
1036	 0.446214592333201 
1037	 0.446080702872032 
1038	 0.446110778751687 
1039	 0.445457481381064 
1040	 0.445711830903754 
1041	 0.446700749534913 
1042	 0.446948320002465 
1043	 0.447174124336858 
1044	 0.447313683651881 
1045	 0.446918601162512 
1046	 0.447650958440868 
1047	 0.449402700796754 
1048	 0.449845827344956 
1049	 0.449250775827563 
1050	 0.449603654409605 
1051	 0.450045354304863 
1052	 0.449625465362126 
1053	 0.45024898743161 
1054	 0.450785886414006 
1055	 0.450534875407838 
1056	 0.45106519418249 
1057	 0.451426283248674 
1058	 0.452013015026242 
1059	 0.451974205563543 
1060	 0.450113252409627 
1061	 0.449535217543941 
1062	 0.448714223988131 
1063	 0.448613020846979 
1064	 0.449020458482192 
1065	 0.45109883146609 
1066	 0.451423904861818 
1067	 0.451112632843029 
1068	 0.450741137466092 
1069	 0.449785443067938 
1070	 0.450405246548846 
1071	 0.451274023511012 
1072	 0.451799793676167 
1073	 0.45311221207188 
1074	 0.453382562233931 
1075	 0.452575259030559 
1076	 0.452382548201128 
1077	 0.45246230372172 
1078	 0.451615950083609 
1079	 0.451049933902574 
1080	 0.451330518134768 
1081	 0.451236736508844 
1082	 0.451432871154118 
1083	 0.451477966707986 
1084	 0.45128181753236 
1085	 0.451176475264896 
1086	 0.450718662353336 
1087	 0.450502685006677 
1088	 0.450523406590844 
1089	 0.450551541124922 
1090	 0.450514680554647 
1091	 0.450861321666357 
1092	 0.451677703548287 
1093	 0.451985017099603 
1094	 0.452480791197608 
1095	 0.452781914960847 
1096	 0.452512124167235 
1097	 0.451861513704951 
1098	 0.451246021863249 
1099	 0.450062804368663 
1100	 0.449580588089386 
1101	 0.449414059352087 
1102	 0.449199060173199 
1103	 0.449205458347851 
1104	 0.449174893110664 
1105	 0.448994434017389 
1106	 0.449132436173435 
1107	 0.449296503538742 
1108	 0.449358310208308 
1109	 0.449180176901513 
1110	 0.448584983840827 
1111	 0.44838662272943 
1112	 0.448161654109464 
1113	 0.448154468962306 
1114	 0.448656018711165 
1115	 0.44853995473942 
1116	 0.448333656554372 
1117	 0.447958834767032 
1118	 0.446765555795555 
1119	 0.446291196896499 
1120	 0.44621734421553 
1121	 0.445819322962394 
1122	 0.445932719751654 
1123	 0.446966462309562 
1124	 0.44683796891474 
1125	 0.446331441102067 
1126	 0.445846433523625 
1127	 0.444625778256695 
1128	 0.443935706793118 
1129	 0.443622357339012 
1130	 0.443155226705826 
1131	 0.442740380790929 
1132	 0.442299036993306 
1133	 0.441902329313617 
1134	 0.441311333749057 
1135	 0.441156437238936 
1136	 0.440477986721964 
1137	 0.439636428093639 
1138	 0.438614677127747 
1139	 0.437741117656872 
1140	 0.436522545544095 
1141	 0.435580524845289 
1142	 0.435011756754512 
1143	 0.43412031121203 
1144	 0.433119608061664 
1145	 0.432055393684111 
1146	 0.43068176729099 
1147	 0.429590871403508 
1148	 0.428335310751893 
1149	 0.427575010727415 
1150	 0.426904824360587 
1151	 0.426698260033827 
1152	 0.425914458871177 
1153	 0.425111359743004 
1154	 0.424173750721294 
1155	 0.422627135318247 
1156	 0.42177247758964 
1157	 0.421284193393194 
1158	 0.420645168683955 
1159	 0.420408381513907 
1160	 0.419831747241875 
1161	 0.418825098014719 
1162	 0.418145263787586 
1163	 0.417449956502154 
1164	 0.416810858834475 
1165	 0.416501691113555 
1166	 0.416617910751481 
1167	 0.416344689562249 
1168	 0.41608238209938 
1169	 0.41584213756286 
1170	 0.415452899551322 
1171	 0.415173540539423 
1172	 0.414953471664783 
1173	 0.414837117355261 
1174	 0.414874155474376 
1175	 0.414704531820027 
1176	 0.41453907375524 
1177	 0.414388137050471 
1178	 0.414180639194401 
1179	 0.41380051209505 
1180	 0.41343773003298 
1181	 0.413114542794792 
1182	 0.412793843902886 
1183	 0.412308136391597 
1184	 0.411998430266173 
1185	 0.411899321150414 
1186	 0.411651305573923 
1187	 0.411337588400165 
1188	 0.41105728434771 
1189	 0.410629770851326 
1190	 0.410441483036016 
1191	 0.410380319309669 
1192	 0.410359414109314 
1193	 0.410428988040063 
1194	 0.410729877634483 
1195	 0.410794871039024 
1196	 0.410808094987251 
1197	 0.41082968500783 
1198	 0.410778550508405 
1199	 0.4107516378799 
1200	 0.410741922925699 
1201	 0.410720872191226 
1202	 0.41063526277315 
1203	 0.410649378272093 
1204	 0.410533274420847 
1205	 0.410737582944357 
1206	 0.411314426310048 
1207	 0.411660753176207 
1208	 0.411940075570935 
1209	 0.412548602719653 
1210	 0.412895055491782 
1211	 0.41307393706472 
1212	 0.413235658106465 
1213	 0.413389652526346 
1214	 0.413533146968316 
1215	 0.41356361235435 
1216	 0.413616978992712 
1217	 0.413642374355319 
1218	 0.413789652641141 
1219	 0.41393052257103 
1220	 0.414093248799377 
1221	 0.414342697578419 
1222	 0.414672165624314 
1223	 0.415013919101901 
1224	 0.415366525652506 
1225	 0.415836830241728 
1226	 0.416596394229405 
1227	 0.416930807501784 
1228	 0.417082371643937 
1229	 0.417374060162876 
1230	 0.417451529721914 
1231	 0.417735328196316 
1232	 0.418273757667623 
1233	 0.418641981881567 
1234	 0.419027679254272 
1235	 0.419328959613333 
1236	 0.419572422815662 
1237	 0.419748465238756 
1238	 0.419918939911125 
1239	 0.419829525647838 
1240	 0.419908706618322 
1241	 0.420127693568177 
1242	 0.420138980824493 
1243	 0.42002172176295 
1244	 0.420221046405589 
1245	 0.420330963009578 
1246	 0.420749586306169 
1247	 0.421811162297201 
1248	 0.422263309719785 
1249	 0.422622538162626 
1250	 0.422752043804423 
1251	 0.422419300922403 
1252	 0.422274008881569 
1253	 0.421865978598827 
1254	 0.421846481863628 
1255	 0.422233027893511 
1256	 0.422401776164188 
1257	 0.422415120509289 
1258	 0.422659871271519 
1259	 0.422671167854505 
1260	 0.422289895843849 
1261	 0.422281739520362 
1262	 0.42252112370726 
1263	 0.422555617945492 
1264	 0.422473168463972 
1265	 0.422581727187535 
1266	 0.422790627583148 
1267	 0.422895139538596 
1268	 0.422924570591814 
1269	 0.423169105433363 
1270	 0.423656308908715 
1271	 0.423790369438905 
1272	 0.423796650269295 
1273	 0.424046950953371 
1274	 0.424020917258314 
1275	 0.424069639384626 
1276	 0.424083228724535 
1277	 0.424440659317518 
1278	 0.424302482469 
1279	 0.423667296733046 
1280	 0.423481974504266 
1281	 0.423379698374543 
1282	 0.423173178966352 
1283	 0.423057054424383 
1284	 0.422879150213333 
1285	 0.422509054459488 
1286	 0.422295775666953 
1287	 0.422362124498046 
1288	 0.422282361831819 
1289	 0.422234909171394 
1290	 0.421981538803404 
1291	 0.421528330074826 
1292	 0.421021239550573 
1293	 0.420494684307052 
1294	 0.420131708784352 
1295	 0.41994916785863 
1296	 0.420039577361791 
1297	 0.419930165065738 
1298	 0.419968741620502 
1299	 0.419769347616234 
1300	 0.419569659301077 
1301	 0.419214340997629 
1302	 0.418597642035493 
1303	 0.418008340220211 
1304	 0.417130923449973 
1305	 0.416514129608619 
1306	 0.41603116298128 
1307	 0.415594899368065 
1308	 0.415048193303765 
1309	 0.414748130452593 
1310	 0.414464283993217 
1311	 0.414092311706485 
1312	 0.413784106939282 
1313	 0.413389375631939 
1314	 0.412834994636154 
1315	 0.412069258346655 
1316	 0.411299288932508 
1317	 0.41037510672231 
1318	 0.409545483385472 
1319	 0.408669565557326 
1320	 0.407691634154407 
1321	 0.406835059296256 
1322	 0.405865617275508 
1323	 0.404625341435422 
1324	 0.403560780747929 
1325	 0.402586491057636 
1326	 0.401498298119776 
1327	 0.400729227365551 
1328	 0.399771430922851 
1329	 0.398681245476279 
1330	 0.39765137069678 
1331	 0.396393626588613 
1332	 0.395128788566406 
1333	 0.393920435091008 
1334	 0.392800071269759 
1335	 0.391628587169006 
1336	 0.390322991912591 
1337	 0.389188230600337 
1338	 0.388278625172247 
1339	 0.387117730758663 
1340	 0.385927034295244 
1341	 0.384748947759427 
1342	 0.38336771233803 
1343	 0.382051927287265 
1344	 0.380741054199063 
1345	 0.379493449003664 
1346	 0.378449021218525 
1347	 0.377299890492798 
1348	 0.37616178398222 
1349	 0.375375222289745 
1350	 0.374287665489372 
1351	 0.372821466305414 
1352	 0.371689779892394 
1353	 0.37072382168757 
1354	 0.369508719522765 
1355	 0.368236290357647 
1356	 0.367115737635988 
1357	 0.365814186266434 
1358	 0.364675510606778 
1359	 0.363792210329036 
1360	 0.362865230805428 
1361	 0.362163348486445 
1362	 0.361038674905821 
1363	 0.359705636472004 
1364	 0.358513635045667 
1365	 0.356933985473277 
1366	 0.355306494415545 
1367	 0.353675142465237 
1368	 0.352133546991458 
1369	 0.35044573329046 
1370	 0.348439970683142 
1371	 0.346647406752207 
1372	 0.344442636237855 
1373	 0.342313220978835 
1374	 0.340346189986645 
1375	 0.337938580589267 
1376	 0.335319273255799 
1377	 0.332678843196265 
1378	 0.329669747425521 
1379	 0.32668283795457 
1380	 0.323904745189234 
1381	 0.320523924929917 
1382	 0.316771385161619 
1383	 0.31290198373 
1384	 0.30879390646059 
1385	 0.304447926412867 
1386	 0.299735392601956 
1387	 0.294831483085732 
1388	 0.289928521522086 
1389	 0.284820519542417 
1390	 0.279763702832046 
1391	 0.27493857106911 
1392	 0.269649980245252 
1393	 0.264447992214313 
1394	 0.259453346050741 
1395	 0.253967901994821 
1396	 0.248499568130633 
1397	 0.242791121004445 
1398	 0.237375812150245 
1399	 0.231875285820785 
1400	 0.22670952991141 
1401	 0.221948645407204 
1402	 0.21701126747645 
1403	 0.212004354298518 
1404	 0.207258986150602 
1405	 0.20242853385628 
1406	 0.198065065826171 
1407	 0.194096888586929 
1408	 0.190256752728092 
1409	 0.186363130188896 
1410	 0.182889561395643 
1411	 0.17953658998143 
1412	 0.176489091152885 
1413	 0.174151993200676 
1414	 0.171745103172596 
1415	 0.169052868996605 
1416	 0.166597224979631 
1417	 0.164114848039037 
1418	 0.161551628882963 
1419	 0.159477082893332 
1420	 0.15778061785905 
1421	 0.156104898423315 
1422	 0.154892639181241 
1423	 0.153387197578838 
1424	 0.151668227900517 
1425	 0.150259232503487 
1426	 0.148683653536342 
1427	 0.147514249461081 
1428	 0.146837673837535 
1429	 0.146100528334898 
1430	 0.14557465740159 
1431	 0.145066666553256 
1432	 0.144669976862439 
1433	 0.144191119874835 
1434	 0.143569421699634 
1435	 0.142593666436 
1436	 0.141653712839657 
1437	 0.140851442969266 
1438	 0.140519434078374 
1439	 0.140501601159874 
1440	 0.14052048223021 
1441	 0.140483291469959 
1442	 0.140182819338219 
1443	 0.139641863571094 
1444	 0.139185883506474 
1445	 0.138447742268922 
1446	 0.138250959936281 
1447	 0.138364447179916 
1448	 0.138432692823894 
1449	 0.138745112944515 
1450	 0.138877016286768 
1451	 0.138990166799415 
1452	 0.138934324046185 
1453	 0.138760104437398 
1454	 0.138740316554767 
1455	 0.138573240347681 
1456	 0.13859549944024 
1457	 0.13882808054279 
1458	 0.139019165946049 
1459	 0.13925224334313 
1460	 0.139461842231891 
1461	 0.13971129732826 
1462	 0.139969687115494 
1463	 0.140212117971634 
1464	 0.140701644270331 
1465	 0.141299876104309 
1466	 0.141906733246008 
1467	 0.142460496485461 
1468	 0.142903426816223 
1469	 0.143213132015223 
1470	 0.143638982409096 
1471	 0.144080024107601 
1472	 0.144458119205025 
1473	 0.145077482006929 
1474	 0.145849423711241 
1475	 0.146573736682309 
1476	 0.147554648784764 
1477	 0.148308070679072 
1478	 0.148768736837434 
1479	 0.149593976366988 
1480	 0.150552695232662 
1481	 0.151417557881937 
1482	 0.152412694197566 
1483	 0.15344241953149 
1484	 0.154489075902802 
1485	 0.155497754660175 
1486	 0.156609558236178 
1487	 0.157695408402664 
1488	 0.158379226230947 
1489	 0.159052554621488 
1490	 0.16019875020523 
1491	 0.161001799979103 
1492	 0.161967316864708 
1493	 0.163090512938863 
1494	 0.163773405111988 
1495	 0.164824713378408 
1496	 0.166185969607951 
1497	 0.167677652690443 
1498	 0.169246249077013 
1499	 0.170484650341927 
1500	 0.171511952925592 
1501	 0.172258668300843 
1502	 0.173082256374812 
1503	 0.173708883458842 
1504	 0.174697415790615 
1505	 0.175801363322202 
1506	 0.17700051539698 
1507	 0.178492859920413 
1508	 0.179658572459571 
1509	 0.180849776455965 
1510	 0.181859645266514 
1511	 0.182451616789484 
1512	 0.183503208962663 
1513	 0.184768769187057 
1514	 0.185827381266269 
1515	 0.18705662021963 
1516	 0.188171129545405 
1517	 0.188939723617054 
1518	 0.189941267361978 
1519	 0.191146004991389 
1520	 0.192272539032515 
1521	 0.193242776462645 
1522	 0.194419418914532 
1523	 0.195445382580071 
1524	 0.196709630946687 
1525	 0.197945558495619 
1526	 0.198622661883598 
1527	 0.199261905581887 
1528	 0.200043390019044 
1529	 0.20098848506584 
1530	 0.202209417227974 
1531	 0.2033796878303 
1532	 0.204129284022111 
1533	 0.204980343250243 
1534	 0.205996057715348 
1535	 0.207011567398409 
1536	 0.208340449303256 
1537	 0.20926997435872 
1538	 0.210125440009443 
1539	 0.210764795127722 
1540	 0.21083865577421 
1541	 0.211577470533567 
1542	 0.212374205331811 
1543	 0.213321845415618 
1544	 0.214892567757919 
1545	 0.216076367930543 
1546	 0.217085624503455 
1547	 0.218208383661143 
1548	 0.219433814839827 
1549	 0.220389919407426 
1550	 0.221193220922158 
1551	 0.221974516975282 
1552	 0.222547404546611 
1553	 0.223179980398586 
1554	 0.223883694985871 
1555	 0.224625029446932 
1556	 0.225330720322849 
1557	 0.225902058786167 
1558	 0.227013564405192 
1559	 0.227967399282991 
1560	 0.22875162878392 
1561	 0.229477960108117 
1562	 0.230012248619976 
1563	 0.23043795911874 
1564	 0.231000189269389 
1565	 0.231948419228433 
1566	 0.232748220441035 
1567	 0.23370178588399 
1568	 0.234984618913603 
1569	 0.235961180373368 
1570	 0.236563298743749 
1571	 0.236895722643902 
1572	 0.236779736560454 
1573	 0.236954723286969 
1574	 0.237928091292919 
1575	 0.238829057188683 
1576	 0.239586441201298 
1577	 0.240521323888512 
1578	 0.241272651951676 
1579	 0.241686828587729 
1580	 0.24235934068043 
1581	 0.243284831647015 
1582	 0.243934409166909 
1583	 0.244358130073227 
1584	 0.245040291250668 
1585	 0.245782659183723 
1586	 0.246381371160313 
1587	 0.247131191955949 
1588	 0.247716439966863 
1589	 0.248097746183636 
1590	 0.24852255084195 
1591	 0.248752810081993 
1592	 0.249296590999844 
1593	 0.249976440459344 
1594	 0.250674640854946 
1595	 0.251786141509891 
1596	 0.252531898763639 
1597	 0.252755188834204 
1598	 0.253461013857772 
1599	 0.254483160151576 
1600	 0.255241460469465 
1601	 0.256289495057311 
1602	 0.257158365689413 
1603	 0.257539883166539 
1604	 0.258025074565912 
1605	 0.258503486996409 
1606	 0.259115444372986 
1607	 0.259922696541514 
1608	 0.260604768422922 
1609	 0.261612517133141 
1610	 0.262004128107978 
1611	 0.26214099553723 
1612	 0.261943858785625 
1613	 0.261779548929734 
1614	 0.261933895466638 
1615	 0.262381620464886 
1616	 0.263330227519154 
1617	 0.26426819565607 
1618	 0.265197238679325 
1619	 0.26622391642581 
1620	 0.266598357463934 
1621	 0.266845471674555 
1622	 0.267346398485695 
1623	 0.267478682113307 
1624	 0.267825893864178 
1625	 0.268267516000463 
1626	 0.268437949624634 
1627	 0.268825301840611 
1628	 0.269191309116937 
1629	 0.269716741458461 
1630	 0.270501681349024 
1631	 0.27095860205626 
1632	 0.271301673634078 
1633	 0.271894269959743 
1634	 0.272593557632532 
1635	 0.272821728605783 
1636	 0.272992826526384 
1637	 0.273135620707305 
1638	 0.272628718390708 
1639	 0.272913772326322 
1640	 0.273778838425372 
1641	 0.274382185613583 
1642	 0.275384464810022 
1643	 0.275683585468855 
1644	 0.275407235026579 
1645	 0.275664199178253 
1646	 0.276021137000721 
1647	 0.275788401846366 
1648	 0.27574094648805 
1649	 0.275320279278396 
1650	 0.273518472843406 
1651	 0.273336968998748 
1652	 0.274018932891968 
1653	 0.274481342651145 
1654	 0.276099610630165 
1655	 0.276375010691185 
1656	 0.275774743851366 
1657	 0.275552454642787 
1658	 0.274415134190348 
1659	 0.274399585269001 
1660	 0.275580578737834 
1661	 0.275810507248241 
1662	 0.276310407167063 
1663	 0.276214674976409 
1664	 0.274865332060996 
1665	 0.274401110139292 
1666	 0.274163646328615 
1667	 0.274045544540989 
1668	 0.274282629654565 
1669	 0.274569502448661 
1670	 0.275373501422093 
1671	 0.275354060839773 
1672	 0.274992538288636 
1673	 0.274716697152892 
1674	 0.273519256353258 
1675	 0.273111459133701 
1676	 0.273474301608821 
1677	 0.273455074064408 
1678	 0.27349721176746 
1679	 0.273533278651003 
1680	 0.27346899583275 
1681	 0.273379882257072 
1682	 0.273549707321397 
1683	 0.273348288336295 
1684	 0.27270992513625 
1685	 0.272281056089605 
1686	 0.271658089205253 
1687	 0.271211043597582 
1688	 0.271089555281451 
1689	 0.270767691024998 
1690	 0.270478050039445 
1691	 0.269995838385146 
1692	 0.269035448073499 
1693	 0.268587740447677 
1694	 0.268660123658626 
1695	 0.268140375045182 
1696	 0.267660927749858 
1697	 0.267002826421076 
1698	 0.265510774153455 
1699	 0.26451487846058 
1700	 0.263668168633686 
1701	 0.263145592815488 
1702	 0.262784500650184 
1703	 0.262740507229466 
1704	 0.263785115758357 
1705	 0.263797833079615 
1706	 0.263327003328591 
1707	 0.262964132636635 
1708	 0.261757629969212 
1709	 0.261073254324895 
1710	 0.2612218329906 
1711	 0.26073313748361 
1712	 0.259477016988785 
1713	 0.259053787655639 
1714	 0.259341029568128 
1715	 0.258738973632732 
1716	 0.258167355169641 
1717	 0.257589384076793 
1718	 0.255612436180232 
1719	 0.254802410048688 
1720	 0.255336217267798 
1721	 0.255258609215902 
1722	 0.255415267533566 
1723	 0.255338598201867 
1724	 0.255017085489549 
1725	 0.254404662855427 
1726	 0.253187122076596 
1727	 0.252530299445214 
1728	 0.251898891060865 
1729	 0.251359210161683 
1730	 0.251696920518496 
1731	 0.251348211479473 
1732	 0.250175452725395 
1733	 0.24960394156808 
1734	 0.248993376099728 
1735	 0.248639202724871 
1736	 0.248869847183376 
1737	 0.248842183044461 
1738	 0.248927806910794 
1739	 0.24872194775672 
1740	 0.248023588250299 
1741	 0.247881000153627 
1742	 0.24805501830508 
1743	 0.247801221478771 
1744	 0.247672250972134 
1745	 0.247589742901696 
1746	 0.247204167276022 
1747	 0.246881858013987 
1748	 0.247009774999241 
1749	 0.246561775645763 
1750	 0.245684746787959 
1751	 0.24460692952386 
1752	 0.242569764386656 
1753	 0.241743428502763 
1754	 0.241473199374399 
1755	 0.2410519854986 
1756	 0.241723606961122 
1757	 0.241566740218171 
1758	 0.240667179161334 
1759	 0.239992515907241 
1760	 0.239173150385841 
1761	 0.238299693647154 
1762	 0.237242419933911 
1763	 0.236533253064109 
1764	 0.235694043907918 
1765	 0.235461649115642 
1766	 0.235943131215407 
1767	 0.235927513750617 
1768	 0.236088658780967 
1769	 0.236129276599594 
1770	 0.235985562602312 
1771	 0.235885251448366 
1772	 0.235647987389984 
1773	 0.235538615634513 
1774	 0.235241904844805 
1775	 0.235240388750024 
1776	 0.235993875142129 
1777	 0.236081973838906 
1778	 0.235886869114913 
1779	 0.235740822359236 
1780	 0.234560961023453 
1781	 0.234800471769504 
1782	 0.23637527667218 
1783	 0.236611366587876 
1784	 0.237152648378406 
1785	 0.237251024456794 
1786	 0.235915345636713 
1787	 0.235819853144558 
1788	 0.236773975213746 
1789	 0.236634060204627 
1790	 0.236179336589554 
1791	 0.235955980904271 
1792	 0.235079711867553 
1793	 0.234775083133604 
1794	 0.235239702309907 
1795	 0.235119812932296 
1796	 0.234488342157638 
1797	 0.234682470792574 
1798	 0.235029886626424 
1799	 0.235312469194799 
1800	 0.236322895024037 
1801	 0.23968662852125 
1802	 0.241174090135318 
1803	 0.241368752808009 
1804	 0.240900751933174 
1805	 0.241072423929941 
1806	 0.240428472952059 
1807	 0.240733681327034 
1808	 0.242845994012605 
1809	 0.242667688502951 
1810	 0.24239144113509 
1811	 0.242262669624132 
1812	 0.239862817724043 
1813	 0.23858002633384 
1814	 0.238271115539699 
1815	 0.23820656675257 
1816	 0.238949886174327 
1817	 0.242875172474786 
1818	 0.243187512371596 
1819	 0.241416792098706 
1820	 0.24102780958505 
1821	 0.238972139015094 
1822	 0.238671829086303 
1823	 0.238849441360269 
1824	 0.240904514255014 
1825	 0.241363756463308 
1826	 0.24115446541053 
1827	 0.241140499135578 
1828	 0.240549863560636 
1829	 0.241334209847039 
1830	 0.241973104087554 
1831	 0.243406074418297 
1832	 0.245382250828933 
1833	 0.245459338150544 
1834	 0.244930552940962 
1835	 0.242853889274255 
1836	 0.242175567394169 
1837	 0.240482721097153 
1838	 0.240847215649508 
1839	 0.242964523648354 
1840	 0.243609352905868 
1841	 0.24255842600478 
1842	 0.242070220386593 
1843	 0.24098808949028 
1844	 0.238005439845082 
1845	 0.236287936452563 
1846	 0.235250518595795 
1847	 0.234155387423425 
1848	 0.232592001382195 
1849	 0.232872258728198 
1850	 0.232702890792022 
1851	 0.231098376112351 
1852	 0.229869659666553 
1853	 0.228642834438516 
1854	 0.229817914538412 
1855	 0.230427262448214 
1856	 0.228997136162407 
1857	 0.226246116369016 
1858	 0.224437479618481 
1859	 0.221877072800556 
1860	 0.218996464639729 
1861	 0.218808731616426 
1862	 0.219573073296974 
1863	 0.218699459848924 
1864	 0.217538118739829 
1865	 0.216059004225015 
1866	 0.213123034275864 
1867	 0.209743318592463 
1868	 0.205423678384028 
1869	 0.200765338876013 
1870	 0.195957612883615 
1871	 0.19087733842748 
1872	 0.186090357580919 
1873	 0.182062066219937 
1874	 0.177880218012557 
1875	 0.174265902425657 
1876	 0.171691304839155 
1877	 0.168437321229129 
1878	 0.163972082106933 
1879	 0.159016970833091 
1880	 0.15400709056013 
1881	 0.146912609938484 
1882	 0.140106341041487 
1883	 0.137173877995295 
1884	 0.133764789091346 
1885	 0.130020423301358 
1886	 0.126798571449291 
1887	 0.121369721534051 
1888	 0.115950269897557 
1889	 0.111682178081132 
1890	 0.108232077699575 
1891	 0.105114147968872 
1892	 0.102600573979406 
1893	 0.100374404253026 
1894	 9.71685439955064E-02 
1895	 9.27695661780874E-02 
1896	 8.95607431318125E-02 
1897	 8.74372572120806E-02 
1898	 8.49939313206669E-02 
1899	 0.083767325326853 
1900	 8.55357120346959E-02 
1901	 8.53445322065695E-02 
1902	 8.45684667226524E-02 
1903	 8.43016950543029E-02 
1904	 8.24469163668893E-02 
1905	 7.71340068634743E-02 
1906	 0.073296774329329 
1907	 7.07220096145286E-02 
1908	 6.94239782996119E-02 
1909	 6.95980098099823E-02 
1910	 6.90783640094059E-02 
1911	 6.85129293681155E-02 
1912	 6.74961659112722E-02 
1913	 6.58169905968857E-02 
1914	 6.54923148185259E-02 
1915	 6.57116114268643E-02 
1916	 6.45579090528872E-02 
1917	 6.46450490446183E-02 
1918	 6.62380025746478E-02 
1919	 6.54248264918031E-02 
1920	 0.066213773679215 
1921	 6.66974492066413E-02 
1922	 6.65572583555852E-02 
1923	 6.66249959666131E-02 
1924	 6.71832409543626E-02 
1925	 6.72224817093879E-02 
1926	 0.067617596261963 
1927	 6.87801882595364E-02 
1928	 7.02333910878038E-02 
1929	 7.14874201144955E-02 
1930	 7.12542952970956E-02 
1931	 7.09892178595641E-02 
1932	 7.00971414616753E-02 
1933	 0.069211480506973 
1934	 6.87315761709726E-02 
1935	 6.86664414379629E-02 
1936	 6.86716775365909E-02 
1937	 0.068921536501578 
1938	 6.89225892314811E-02 
1939	 6.93448949568218E-02 
1940	 7.00904783325983E-02 
1941	 7.01041217121978E-02 
1942	 7.06808072273051E-02 
1943	 0.071847957300886 
1944	 7.23251984532117E-02 
1945	 7.28024952455809E-02 
1946	 7.33444434453948E-02 
1947	 7.36219088059886E-02 
1948	 7.36040754400122E-02 
1949	 7.35049864404325E-02 
1950	 7.31710231743122E-02 
1951	 7.36376984096854E-02 
1952	 7.34592684477949E-02 
1953	 7.42423375426782E-02 
1954	 7.49805514244572E-02 
1955	 7.38913487263961E-02 
1956	 7.35001884993579E-02 
1957	 7.29812453531606E-02 
1958	 7.17203893167957E-02 
1959	 6.96698711197541E-02 
1960	 6.95918199745136E-02 
1961	 6.97071630966541E-02 
1962	 7.00031213230016E-02 
1963	 7.29039173865007E-02 
1964	 7.42069085677508E-02 
1965	 7.36569721022172E-02 
1966	 7.34503448125986E-02 
1967	 0.073868015087193 
1968	 7.47993589640218E-02 
1969	 7.50073920575654E-02 
1970	 0.075550545484801 
1971	 7.58041408268767E-02 
1972	 0.075393173130252 
1973	 7.47572397401501E-02 
1974	 7.34539069811153E-02 
1975	 7.36049702092267E-02 
1976	 7.43097200566606E-02 
1977	 0.074698432231416 
1978	 7.52497777050584E-02 
1979	 7.68609780273502E-02 
1980	 7.81981194212738E-02 
1981	 7.88076896879117E-02 
1982	 7.95864267767596E-02 
1983	 8.17289949934294E-02 
1984	 8.25374700591702E-02 
1985	 0.08147805163062 
1986	 8.20186809417942E-02 
1987	 8.34659289783287E-02 
1988	 8.36683068783424E-02 
1989	 8.49109832783497E-02 
1990	 8.69562648932356E-02 
1991	 8.82556161980556E-02 
1992	 8.95667099616298E-02 
1993	 8.93864842986299E-02 
1994	 8.79787514987638E-02 
1995	 8.71454333378504E-02 
1996	 8.44701285371915E-02 
1997	 8.35163432526346E-02 
1998	 0.084537735974704 
1999	 8.39053637773432E-02 
2000	 8.24425021703316E-02 
2001	 8.23468302964586E-02 
2002	 8.02812023259226E-02 
2003	 7.94526369277005E-02 
2004	 7.95934486921618E-02 
2005	 7.96888000368176E-02 
2006	 8.06011168262361E-02 
2007	 8.23109533940971E-02 
2008	 8.38672879884763E-02 
2009	 8.61920190232348E-02 
2010	 8.82154765938893E-02 
2011	 9.09493697611675E-02 
2012	 9.25005343237101E-02 
2013	 9.38147939500848E-02 
2014	 9.43289733941604E-02 
2015	 9.27331737511924E-02 
2016	 9.24569115971447E-02 
2017	 9.21405630122043E-02 
2018	 9.17174415695788E-02 
2019	 9.28203008856936E-02 
2020	 9.55031675409093E-02 
2021	 9.71507220546362E-02 
2022	 9.97034331104191E-02 
2023	 0.101363103322336 
2024	 0.102891532978469 
2025	 0.103880122422519 
2026	 0.103903275187548 
2027	 0.104204884799844 
2028	 0.105200100957845 
2029	 0.103339454498119 
2030	 0.102171655183185 
2031	 0.103552347545836 
2032	 0.10336175498909 
2033	 0.101665173581704 
2034	 0.102916596086713 
2035	 0.10618830947703 
2036	 0.107366292407575 
2037	 0.110848822530078 
2038	 0.111341011134062 
2039	 0.106440809489957 
2040	 0.105811070766483 
2041	 0.106630320143051 
2042	 0.106887607831215 
2043	 0.110319161338145 
2044	 0.113831083152668 
2045	 0.114638935920551 
2046	 0.113516982061824 
2047	 0.113393369675382 
2048	 0.111817705157638 
2049	 0.11165559230055 
2050	 0.112534672583018 
2051	 0.113027374748334 
2052	 0.114165792937269 
2053	 0.114084089505196 
2054	 0.113920215659191 
2055	 0.11293094146277 
2056	 0.109669804157984 
2057	 0.107484993364543 
2058	 0.106328805226173 
2059	 0.109267903839063 
2060	 0.111839591535346 
2061	 0.118631730772376 
2062	 0.12042674003545 
2063	 0.120330854784694 
2064	 0.120259203605663 
2065	 0.117929320711951 
2066	 0.117025027067187 
2067	 0.116622941089187 
2068	 0.115949017382052 
2069	 0.115235133829128 
2070	 0.114117549088833 
2071	 0.11172989450107 
2072	 0.111815763398674 
2073	 0.110483888904364 
2074	 0.110349831193505 
2075	 0.111015598570933 
2076	 0.11253490643201 
2077	 0.114432497149056 
2078	 0.11845919381551 
2079	 0.119915908421565 
2080	 0.121182876258231 
2081	 0.121325155597048 
2082	 0.117935275832639 
2083	 0.117964697950107 
2084	 0.11939456215285 
2085	 0.120571571948282 
2086	 0.124319830127609 
2087	 0.126234260797544 
2088	 0.126787913358382 
2089	 0.125668779662827 
2090	 0.124972851631109 
2091	 0.12297533963531 
2092	 0.121732940450976 
2093	 0.120232384763606 
2094	 0.119832194838788 
2095	 0.119620249742452 
2096	 0.120672022601958 
2097	 0.123408118794068 
2098	 0.125552466875579 
2099	 0.129195949301424 
2100	 0.130595651031034 
2101	 0.131816153835159 
2102	 0.131259366321985 
2103	 0.127226971273635 
2104	 0.124890843793463 
2105	 0.122861214680199 
2106	 0.120034087583888 
2107	 0.118266679121355 
2108	 0.116374153807986 
2109	 0.117484036969365 
2110	 0.120557445318291 
2111	 0.123148125381509 
2112	 0.130488089456365 
2113	 0.132926293535558 
2114	 0.131171945910638 
2115	 0.131369534440569 
2116	 0.13135802491553 
2117	 0.130204239952915 
2118	 0.127417759467025 
2119	 0.127958861064233 
2120	 0.12618713604395 
2121	 0.122911701615648 
2122	 0.12263683157825 
2123	 0.124220051890555 
2124	 0.125134831352883 
2125	 0.127423377114327 
2126	 0.128489435819249 
2127	 0.128936636804533 
2128	 0.130438398751494 
2129	 0.13155368947828 
2130	 0.134033293854329 
2131	 0.138500971469274 
2132	 0.141123936533551 
2133	 0.144569353226612 
2134	 0.145858188902739 
2135	 0.145118980513936 
2136	 0.144496886837132 
2137	 0.141996502660843 
2138	 0.140424757991865 
2139	 0.139551520904919 
2140	 0.138836900654163 
2141	 0.138743218853732 
2142	 0.139808134646281 
2143	 0.140441065405279 
2144	 0.142532883434982 
2145	 0.141868076247868 
2146	 0.138034525287974 
2147	 0.137662044781138 
2148	 0.137602605985163 
2149	 0.137519768619752 
2150	 0.141420708183782 
2151	 0.142105350787676 
2152	 0.139441698102299 
2153	 0.137727334792904 
2154	 0.134726211603804 
2155	 0.1328598490258 
2156	 0.131924475609486 
2157	 0.13643593697308 
2158	 0.136423893516894 
2159	 0.136284924445042 
2160	 0.136787876105692 
2161	 0.134536141861786 
2162	 0.135524533383742 
2163	 0.140224336667853 
2164	 0.142662160058499 
2165	 0.144828702702313 
2166	 0.14720968870369 
2167	 0.151136165697906 
2168	 0.151395752783218 
2169	 0.149346336594411 
2170	 0.148113734293629 
2171	 0.143024495661232 
2172	 0.141324835235869 
2173	 0.143513276706507 
2174	 0.143558841822998 
2175	 0.143001502930155 
2176	 0.14257068747349 
2177	 0.141817433704014 
2178	 0.138859101526768 
2179	 0.13968665955921 
2180	 0.142593668336482 
2181	 0.144516981301408 
2182	 0.14895183865319 
2183	 0.149824598433424 
2184	 0.148740616671056 
2185	 0.148018266197084 
2186	 0.145106361951093 
2187	 0.143593654034829 
2188	 0.143583257075744 
2189	 0.142004304416293 
2190	 0.138847343686212 
2191	 0.137933510571815 
2192	 0.135880729728259 
2193	 0.136315740279081 
2194	 0.140847212070182 
2195	 0.143719510502569 
2196	 0.145033084073769 
2197	 0.147156778565319 
2198	 0.148012188921955 
2199	 0.146964524450906 
2200	 0.146774657018731 
2201	 0.147529865622265 
2202	 0.146671370798282 
2203	 0.144025928993012 
2204	 0.142778476346823 
2205	 0.140940537780546 
2206	 0.14030284059618 
2207	 0.141022602472318 
2208	 0.141524930509601 
2209	 0.14327867728322 
2210	 0.143404916920863 
2211	 0.142019523735723 
2212	 0.141995871076216 
2213	 0.141526370022976 
2214	 0.141701767938835 
2215	 0.143341128556897 
2216	 0.14446713247557 
2217	 0.145489570967029 
2218	 0.146993697298315 
2219	 0.145528836411218 
2220	 0.146024962347178 
2221	 0.146048177442622 
2222	 0.145184180753818 
2223	 0.144051599245332 
2224	 0.143384214141069 
2225	 0.142879957264216 
2226	 0.141937530379183 
2227	 0.140387675036728 
2228	 0.139065411276234 
2229	 0.138241859256446 
2230	 0.13586279095097 
2231	 0.135251992535065 
2232	 0.137480614765896 
2233	 0.137340258425279 
2234	 0.135531974176136 
2235	 0.135197863498385 
2236	 0.134349428325046 
2237	 0.134338227626781 
2238	 0.136711863431515 
2239	 0.13745208922138 
2240	 0.135821793161736 
2241	 0.138149909187179 
2242	 0.138571433934269 
2243	 0.138731384256046 
2244	 0.141124847294844 
2245	 0.141701016892391 
2246	 0.141084764931248 
2247	 0.138823202970881 
2248	 0.136946145970601 
2249	 0.133064836283133 
2250	 0.131936911671252 
2251	 0.132492852250908 
2252	 0.132180147941706 
2253	 0.132656283131223 
2254	 0.131433384512235 
2255	 0.128141464217654 
2256	 0.126965480202436 
2257	 0.126037773726687 
2258	 0.127089224707724 
2259	 0.133208826475386 
2260	 0.1330444264212 
2261	 0.12897634837392 
2262	 0.126414661185689 
2263	 0.119055217219213 
2264	 0.116048014843397 
2265	 0.117187959035151 
2266	 0.118558893885289 
2267	 0.121946114302747 
2268	 0.124164251708081 
2269	 0.128131909035769 
2270	 0.130155289081735 
2271	 0.129467272874117 
2272	 0.128940807721304 
2273	 0.125345542552202 
2274	 0.120580786156206 
2275	 0.117298578062908 
2276	 0.113711938415914 
2277	 0.114036733084184 
2278	 0.117397731571255 
2279	 0.121468999424863 
2280	 0.13098964304055 
2281	 0.13347731950485 
2282	 0.134965260585898 
2283	 0.13264985508601 
2284	 0.121734298952626 
2285	 0.118447633571158 
2286	 0.116734869438825 
2287	 0.115724445763682 
2288	 0.119157273006834 
2289	 0.119297776051557 
2290	 0.117167040436216 
2291	 0.116917528000998 
2292	 0.117976092511382 
2293	 0.119420841514542 
2294	 0.121042655276204 
2295	 0.121825712304129 
2296	 0.124028487284227 
2297	 0.12283387733881 
2298	 0.119113653785878 
2299	 0.117376103380312 
2300	 0.115519419086005 
2301	 0.109807958645073 
2302	 0.109421836978546 
2303	 0.111096750847917 
2304	 0.110487407142324 
2305	 0.1109239951048 
2306	 0.106529298428175 
2307	 0.100883213651471 
2308	 0.104739094264656 
2309	 0.105311019902814 
2310	 0.109142148618429 
2311	 0.116301597402094 
2312	 0.113360848615377 
2313	 0.113342787604844 
2314	 0.114224351416482 
2315	 0.114593028622342 
2316	 0.1126780146339 
2317	 0.109580006516913 
2318	 0.104099614526911 
2319	 9.39677430281518E-02 
2320	 8.97908334003096E-02 
2321	 8.73814357249915E-02 
2322	 8.66495856960497E-02 
2323	 8.62966044097459E-02 
2324	 8.91880928877316E-02 
2325	 9.68363037345194E-02 
2326	 0.10065438225091 
2327	 0.113057564703375 
2328	 0.11323755963637 
2329	 0.100348045873573 
2330	 0.094981564875722 
2331	 8.21580536875585E-02 
2332	 7.81961920711503E-02 
2333	 8.24668630512549E-02 
2334	 8.58351252094007E-02 
2335	 9.51660153326559E-02 
2336	 0.101404698296073 
2337	 0.111223393736083 
2338	 0.113681506338424 
2339	 0.106059940362098 
2340	 0.104943875691545 
2341	 0.104791196870243 
2342	 0.101392269069891 
2343	 9.95527236466786E-02 
2344	 9.99740696083373E-02 
2345	 9.73503267301706E-02 
2346	 9.29675860243897E-02 
2347	 0.094791311195203 
2348	 9.78147533226951E-02 
2349	 9.36796494926472E-02 
2350	 0.101697427015471 
2351	 0.112336378803886 
2352	 0.11792716523582 
2353	 0.120395564282143 
2354	 0.113259891025865 
2355	 0.107092257889916 
2356	 0.104341292977188 
2357	 0.106462743443504 
2358	 0.110661643886979 
2359	 9.93107601234813E-02 
2360	 8.54052773081817E-02 
2361	 8.34456448548982E-02 
2362	 7.55181297577207E-02 
2363	 7.75454442572224E-02 
2364	 8.78844817851377E-02 
2365	 8.93860511928862E-02 
2366	 9.02869265161561E-02 
2367	 9.53106306409682E-02 
2368	 9.98110124461677E-02 
2369	 9.37722147095306E-02 
2370	 8.43704345368194E-02 
2371	 7.19274853153604E-02 
2372	 6.24772958688666E-02 
2373	 6.55880087827476E-02 
2374	 7.69930627458587E-02 
2375	 8.46879445193275E-02 
2376	 8.57522915885911E-02 
2377	 8.78366773544283E-02 
2378	 9.51326926216983E-02 
2379	 0.10005805777614 
2380	 9.98709337951562E-02 
2381	 8.57016523419711E-02 
2382	 6.28302290231417E-02 
2383	 5.72601387767886E-02 
2384	 5.72773408085288E-02 
2385	 6.41414196528411E-02 
2386	 9.73342084673416E-02 
2387	 0.103117356408947 
2388	 9.72471194699098E-02 
2389	 9.45679349404355E-02 
2390	 7.53967940170895E-02 
2391	 7.14517856214483E-02 
2392	 8.07564032360904E-02 
2393	 8.21449185510665E-02 
2394	 8.39504033839867E-02 
2395	 8.05350560248822E-02 
2396	 7.14298493527647E-02 
2397	 6.96747806145535E-02 
2398	 7.03636209738918E-02 
2399	 7.33297621920531E-02 
2400	 0.07805816500949 
2401	 0.076393184509371 
2402	 6.77450435956133E-02 
2403	 6.86896098144208E-02 
2404	 8.00179307524611E-02 
2405	 8.59085670124992E-02 
2406	 0.102154489289589 
2407	 0.102354307649277 
2408	 0.079286931336918 
2409	 6.68820303440599E-02 
2410	 4.83406682838322E-02 
2411	 4.57393196824656E-02 
2412	 6.20986352728719E-02 
2413	 6.63397181246043E-02 
2414	 7.60188582184547E-02 
2415	 6.52606364749823E-02 
2416	 3.11149110801435E-02 
2417	 2.52810673972236E-02 
2418	 2.12684889599469E-02 
2419	 3.70636638177404E-02 
2420	 7.94439931546867E-02 
2421	 0.10204754951588 
2422	 0.13745195212982 
2423	 0.141249166299892 
2424	 0.118327073610183 
2425	 0.108473438735676 
2426	 8.61738211648373E-02 
2427	 7.26412420444588E-02 
2428	 6.46300533846984E-02 
2429	 5.69174199097327E-02 
2430	 4.39223500822636E-02 
2431	 3.57556608399816E-02 
2432	 4.07770729786227E-02 
2433	 3.27923770217543E-02 
2434	 2.03867903391964E-02 
2435	 2.85064946594565E-02 
2436	 3.05944924744186E-02 
2437	 5.25749311255148E-02 
2438	 0.109825788009364 
2439	 0.119205614152395 
2440	 0.117600482162341 
2441	 0.112909677509503 
2442	 8.05605325988582E-02 
2443	 8.90838531241472E-02 
2444	 8.21618403161557E-02 
2445	 8.86293497516254E-02 
2446	 9.67788788873747E-02 
2447	 8.11906818716736E-02 
2448	 8.63989452275907E-02 
2449	 9.36454718749027E-02 
2450	 7.75950989782385E-02 
2451	 6.47823089385988E-02 
2452	 0.023722615563992 
2453	-2.12221385654901E-02 
2454	-4.30557954213484E-02 
2455	-4.20797974432775E-02 
2456	-2.69953345679333E-02 
2457	-1.36750831736233E-02 
2458	-4.0633339660569E-03 
2459	-2.83282385743353E-02 
2460	-2.06709771237137E-02 
2461	 9.63471453661246E-03 
2462	 1.80824848950647E-02 
2463	 6.44876294343151E-02 
2464	 6.58450994931274E-02 
2465	 1.82883358538485E-02 
2466	 2.61155553418045E-02 
2467	 1.79955280128301E-02 
2468	 2.62655531867853E-02 
2469	 8.73736794101694E-02 
2470	 0.104719010918626 
2471	 0.1005234360426 
2472	 9.09188990068145E-02 
2473	 0.062557154592713 
2474	 5.88077225862328E-02 
2475	 6.14106521624762E-02 
2476	 4.74618965163048E-02 
2477	 7.20367120518188E-02 
2478	 6.03605381196888E-02 
2479	 1.91481292192633E-02 
2480	 2.76536193295698E-02 
2481	 1.99276592428463E-02 
2482	 2.85523198157248E-02 
2483	 4.85940987694866E-02 
2484	 5.33895251208625E-02 
2485	 6.10956325570901E-02 
2486	 4.72486194586666E-02 
2487	 7.82113049705241E-02 
2488	 0.101482835098556 
2489	 5.75338725608791E-02 
2490	 3.46493573429168E-02 
2491	 3.63117015360215E-02 
2492	 3.43105054424013E-02 
2493	 8.50533239644028E-02 
2494	 0.12837101508334 
2495	 7.80001597814351E-02 
2496	 4.26440464950374E-02 
2497	 5.18301260341362E-03 
2498	-4.21955640015323E-02 
2499	-0.029654326270397 
2500	-3.03227099826804E-02 
