Wavelength	MAC_ARB_099_339_210422_L00003.asd
350	 7.98452394802618E-02 
351	-8.67684579311333E-02 
352	-3.31836919770865E-02 
353	-0.262000572053901 
354	-0.104663252006719 
355	 0.129570375325697 
356	 0.231641379680763 
357	 0.30967805795144 
358	 9.53291742676648E-02 
359	-3.54066780192274E-02 
360	 0.130591046703402 
361	 3.57757389714909E-02 
362	-0.013136779439712 
363	 3.37080347635256E-02 
364	 0.108444772040666 
365	 7.10880105708948E-02 
366	 4.40675400072499E-02 
367	 6.43553855841514E-02 
368	 5.04415694472877E-02 
369	 5.11200123518927E-03 
370	-1.78426558943978E-02 
371	 1.07115380015021E-02 
372	 2.01300329477704E-02 
373	 3.91910966814534E-02 
374	 5.63510150595486E-02 
375	 4.48342185439074E-02 
376	 3.99394362385767E-02 
377	 4.02322885560228E-02 
378	 5.37830050920513E-02 
379	 0.101835899747089 
380	 8.26626955050604E-02 
381	 3.17252055821163E-02 
382	 8.66906066481915E-03 
383	 4.76612110821849E-02 
384	 4.10776836152965E-02 
385	 1.19500715945838E-02 
386	 3.33783277023979E-02 
387	 0.053530346295935 
388	 5.39705967966635E-02 
389	 0.043162698641778 
390	 5.39378433570819E-02 
391	 0.072934416360386 
392	 0.066790542505901 
393	 3.22297275051071E-02 
394	 4.73729209367507E-02 
395	 0.061176305551669 
396	 0.063966751004658 
397	 6.27207079579803E-02 
398	 5.05420266571437E-02 
399	 5.30883350635006E-02 
400	 6.91254277086535E-02 
401	 6.98401285637838E-02 
402	 7.08733697547691E-02 
403	 6.36777121225735E-02 
404	 4.93179526113185E-02 
405	 6.54166951924525E-02 
406	 6.01670590349094E-02 
407	 4.82309365044113E-02 
408	 6.26840079898784E-02 
409	 6.65781533501506E-02 
410	 6.27645658705149E-02 
411	 5.67938305466818E-02 
412	 5.37671348698201E-02 
413	 5.61004518714817E-02 
414	 5.71891811949568E-02 
415	 5.36142132559374E-02 
416	 5.47219403193472E-02 
417	 5.40032988847266E-02 
418	 5.53509061860174E-02 
419	 6.39980495557929E-02 
420	 6.15578520069122E-02 
421	 5.82838218627328E-02 
422	 5.96489821404436E-02 
423	 6.25964160425843E-02 
424	 0.059862881220893 
425	 5.78320926388484E-02 
426	 6.16836091634781E-02 
427	 6.50703957689914E-02 
428	 6.04976741573737E-02 
429	 5.45176102981959E-02 
430	 5.90066756669575E-02 
431	 6.29778329116346E-02 
432	 6.67094912683652E-02 
433	 6.87426221213237E-02 
434	 6.30228605712342E-02 
435	 6.21395987737133E-02 
436	 6.26007176482805E-02 
437	 5.97729334417316E-02 
438	 6.21349902091046E-02 
439	 6.42157554989032E-02 
440	 6.47509958657266E-02 
441	 6.55974681892278E-02 
442	 6.75993534496584E-02 
443	 0.06791453853662 
444	 6.54809369005453E-02 
445	 6.29546160848758E-02 
446	 6.42234533440584E-02 
447	 6.69554480698911E-02 
448	 6.73660062346781E-02 
449	 6.67182501208279E-02 
450	 6.67099794444966E-02 
451	 6.69783777882903E-02 
452	 6.54091216813971E-02 
453	 0.064430787804423 
454	 6.55824986635933E-02 
455	 6.82714678589477E-02 
456	 6.71449792921263E-02 
457	 6.62908242845312E-02 
458	 0.066759759212467 
459	 6.80892500085755E-02 
460	 6.96518719850213E-02 
461	 6.92871413780715E-02 
462	 6.72801021938173E-02 
463	 6.70351337195589E-02 
464	 6.73508847621419E-02 
465	 6.68347710360281E-02 
466	 0.065462798921535 
467	 6.82532179744909E-02 
468	 0.069698140989104 
469	 6.87126015721075E-02 
470	 6.73885223599117E-02 
471	 6.83861099484694E-02 
472	 6.94234572396148E-02 
473	 6.86949468249425E-02 
474	 0.066215307361777 
475	 6.61948083006398E-02 
476	 6.73193916202718E-02 
477	 6.73781102631548E-02 
478	 6.98811119096105E-02 
479	 0.070838834102249 
480	 6.97182468586346E-02 
481	 0.069259245490471 
482	 6.70866108614176E-02 
483	 6.63210166602047E-02 
484	 6.83616742695773E-02 
485	 6.79340500405052E-02 
486	 6.72884764693332E-02 
487	 6.78547251991989E-02 
488	 7.00076415249442E-02 
489	 6.90245943990791E-02 
490	 6.85912050747094E-02 
491	 7.00114336198122E-02 
492	 7.04777605053626E-02 
493	 6.99838986764723E-02 
494	 6.89457327874855E-02 
495	 6.80199524631064E-02 
496	 6.79381230851414E-02 
497	 6.78369658890423E-02 
498	 6.78653368953028E-02 
499	 6.88147683770679E-02 
500	 7.00576507711834E-02 
501	 7.04560713353442E-02 
502	 7.01265399315015E-02 
503	 7.18688141103664E-02 
504	 7.29904090652426E-02 
505	 7.28107144556066E-02 
506	 7.18723873986486E-02 
507	 0.072990030973481 
508	 7.42082799722324E-02 
509	 7.48786554212636E-02 
510	 7.60510708718586E-02 
511	 7.68747589202391E-02 
512	 7.72591288301439E-02 
513	 7.74450002249535E-02 
514	 7.80814305061511E-02 
515	 0.078889109831581 
516	 8.01601464028809E-02 
517	 8.23508826440012E-02 
518	 8.42123990541297E-02 
519	 8.67752850059128E-02 
520	 8.99224903167999E-02 
521	 9.11475704687549E-02 
522	 9.24053418105524E-02 
523	 9.37014577271389E-02 
524	 9.48655702715849E-02 
525	 9.78620370199623E-02 
526	 0.100472563228992 
527	 0.101958656458336 
528	 0.10315978898008 
529	 0.105711007718424 
530	 0.10813007046663 
531	 0.109299615487184 
532	 0.110703868204034 
533	 0.111719554274596 
534	 0.112899122713014 
535	 0.115101919524231 
536	 0.116911578540065 
537	 0.117648345669522 
538	 0.117812838831317 
539	 0.119514627725402 
540	 0.12041050641219 
541	 0.121399988048828 
542	 0.123508863257685 
543	 0.124236971080265 
544	 0.124343572705513 
545	 0.12456901714322 
546	 0.125486734249905 
547	 0.126889547501029 
548	 0.127788532912437 
549	 0.127813853352239 
550	 0.128431014433146 
551	 0.128767789998591 
552	 0.128977758696953 
553	 0.129520049954517 
554	 0.129413424607164 
555	 0.129360402780833 
556	 0.129525516360842 
557	 0.129095145906692 
558	 0.128156776839992 
559	 0.12736876187608 
560	 0.12707175026364 
561	 0.12552208526994 
562	 0.124449693696276 
563	 0.123934415365739 
564	 0.122704456083817 
565	 0.121615270340804 
566	 0.120846362750473 
567	 0.120184571669885 
568	 0.118698386127585 
569	 0.117443229144178 
570	 0.116513746427811 
571	 0.115480079461759 
572	 0.113493869785745 
573	 0.111847481034275 
574	 0.11094870104932 
575	 0.109730628189779 
576	 0.108479536511978 
577	 0.107240981511289 
578	 0.106120931803711 
579	 0.105624583862923 
580	 0.105019725066816 
581	 0.104340512008541 
582	 0.104133037079099 
583	 0.103062573706475 
584	 0.102060814555764 
585	 0.101711688659685 
586	 0.101055790530135 
587	 0.100386281970125 
588	 0.099912584606997 
589	 9.96727875071169E-02 
590	 9.85878434070157E-02 
591	 9.82575395464398E-02 
592	 9.85948310821781E-02 
593	 9.72322795364214E-02 
594	 0.096882937136778 
595	 9.72578291530705E-02 
596	 9.73147022413771E-02 
597	 9.60839563786556E-02 
598	 9.57923220258579E-02 
599	 9.63743904906458E-02 
600	 9.61968345184151E-02 
601	 9.55582872414352E-02 
602	 9.51291835415369E-02 
603	 9.50741838387374E-02 
604	 9.44531814986995E-02 
605	 9.34051238023363E-02 
606	 9.27351382597071E-02 
607	 9.30843431896209E-02 
608	 0.092639776541377 
609	 9.18159916205774E-02 
610	 9.09682661955711E-02 
611	 9.02243826054754E-02 
612	 8.96974864190412E-02 
613	 8.87587298134778E-02 
614	 8.73362296524454E-02 
615	 8.76736706624857E-02 
616	 8.73593395016511E-02 
617	 8.60621627998735E-02 
618	 8.48240050273228E-02 
619	 8.48636710285259E-02 
620	 8.48222980093651E-02 
621	 8.40177338218972E-02 
622	 8.34062600205448E-02 
623	 8.39256176348863E-02 
624	 8.45015624363693E-02 
625	 8.38474413613608E-02 
626	 8.31581828319474E-02 
627	 8.29512235346005E-02 
628	 8.33280601711755E-02 
629	 8.39600416319147E-02 
630	 8.36492081003147E-02 
631	 8.31543049708332E-02 
632	 8.30465560248187E-02 
633	 8.22531917348003E-02 
634	 8.20348760991191E-02 
635	 0.082283407460021 
636	 8.22405764861086E-02 
637	 8.18193851807121E-02 
638	 8.10494552977648E-02 
639	 8.02148593224515E-02 
640	 7.99039341261294E-02 
641	 7.98358416267125E-02 
642	 7.92242811478305E-02 
643	 7.77466564228621E-02 
644	 7.72593397937744E-02 
645	 7.69725573644052E-02 
646	 7.64560698734882E-02 
647	 7.56436215708532E-02 
648	 7.52351163321639E-02 
649	 7.44576527926841E-02 
650	 7.32884530205499E-02 
651	 0.073727236538477 
652	 7.36818476963579E-02 
653	 7.29350767585186E-02 
654	 7.20767636545692E-02 
655	 0.071996230053785 
656	 7.22892113268312E-02 
657	 7.21194615260594E-02 
658	 7.04452014573184E-02 
659	 7.02560755491085E-02 
660	 7.05733922608394E-02 
661	 7.00795745495189E-02 
662	 0.068814554901625 
663	 6.80168633313729E-02 
664	 6.79394777559125E-02 
665	 6.81369926850098E-02 
666	 6.72221648494562E-02 
667	 6.68644456932234E-02 
668	 6.73465305462604E-02 
669	 6.66658898529972E-02 
670	 0.066973997329733 
671	 6.72915303305396E-02 
672	 6.65410796179928E-02 
673	 0.066279900737579 
674	 6.63449896451118E-02 
675	 6.64759250667622E-02 
676	 6.64537326143117E-02 
677	 6.73014814899686E-02 
678	 6.81134845371778E-02 
679	 6.82909838948266E-02 
680	 6.82010499923595E-02 
681	 6.82496927912939E-02 
682	 0.068491190684804 
683	 6.89914987225006E-02 
684	 7.06634489820682E-02 
685	 0.071701510257721 
686	 7.20466827872996E-02 
687	 7.31648284802704E-02 
688	 7.44598133024774E-02 
689	 7.59400928670943E-02 
690	 7.79425679073253E-02 
691	 8.13908346155539E-02 
692	 8.54154368141516E-02 
693	 8.99423018000383E-02 
694	 9.51302455212711E-02 
695	 0.100798122102713 
696	 0.106687515666931 
697	 0.113443783654987 
698	 0.122461209820906 
699	 0.131273683661493 
700	 0.140287788104164 
701	 0.149994787285699 
702	 0.159497386175623 
703	 0.169755963438326 
704	 0.180228727313873 
705	 0.190004626651447 
706	 0.200451163858339 
707	 0.210981428457495 
708	 0.221291118225102 
709	 0.231539386324187 
710	 0.240635292294664 
711	 0.249974385375566 
712	 0.260505965097872 
713	 0.270299471798967 
714	 0.280027950462659 
715	 0.289376376390968 
716	 0.297763243165764 
717	 0.306580514682928 
718	 0.315033937801432 
719	 0.32293646023505 
720	 0.331154220714678 
721	 0.338775905030685 
722	 0.346045348064593 
723	 0.353255098715716 
724	 0.360043037518469 
725	 0.366184320504027 
726	 0.371850692499252 
727	 0.377408393351942 
728	 0.382908496280169 
729	 0.387978584980689 
730	 0.39251077183223 
731	 0.396732655043391 
732	 0.400978883716994 
733	 0.404816989754387 
734	 0.408091513437657 
735	 0.412047346781375 
736	 0.415243223060286 
737	 0.417716063853675 
738	 0.420157835933343 
739	 0.4221845706838 
740	 0.424310830744495 
741	 0.426581032165335 
742	 0.428451725230121 
743	 0.430451815639176 
744	 0.432180382375516 
745	 0.433350041627701 
746	 0.434389866755228 
747	 0.43573229369669 
748	 0.437200346269845 
749	 0.43836190328569 
750	 0.439203532646258 
751	 0.439829926701968 
752	 0.440460297764353 
753	 0.441361258040489 
754	 0.441722116119664 
755	 0.441921626675562 
756	 0.442355344447638 
757	 0.442944151093822 
758	 0.443560628593559 
759	 0.443966869932012 
760	 0.444005343504768 
761	 0.444008496940977 
762	 0.444258109673693 
763	 0.444764900377936 
764	 0.445277169299895 
765	 0.44521235043694 
766	 0.445255319776054 
767	 0.445710608766317 
768	 0.445901539189734 
769	 0.445600765128677 
770	 0.445301542208443 
771	 0.445539865293108 
772	 0.446170444060886 
773	 0.44638322812337 
774	 0.446178382853942 
775	 0.446077195516676 
776	 0.446258688604345 
777	 0.446166197005714 
778	 0.445710234702373 
779	 0.44548720113449 
780	 0.445876752591274 
781	 0.44637507298171 
782	 0.446551507582989 
783	 0.44678738365695 
784	 0.446523036800346 
785	 0.446414186131005 
786	 0.447206239505205 
787	 0.447390914792393 
788	 0.447197741760995 
789	 0.447000687078465 
790	 0.447131219393597 
791	 0.446753563127505 
792	 0.446945482602579 
793	 0.447713509469952 
794	 0.446833837480119 
795	 0.447157679880418 
796	 0.447883650273781 
797	 0.447796123706183 
798	 0.447793705935703 
799	 0.448059945019876 
800	 0.44826616224932 
801	 0.447982127126847 
802	 0.448020581104072 
803	 0.447940750579667 
804	 0.447853520203177 
805	 0.44839157406959 
806	 0.448223793667657 
807	 0.447848293517438 
808	 0.447759430824074 
809	 0.447844806847005 
810	 0.447777240134867 
811	 0.44782757650272 
812	 0.448214309742968 
813	 0.448286085459718 
814	 0.448913000883372 
815	 0.449420723799512 
816	 0.448739099464518 
817	 0.448655008410323 
818	 0.449026615585953 
819	 0.449305341879802 
820	 0.448807453811089 
821	 0.448316194854566 
822	 0.44826665270282 
823	 0.448650816344983 
824	 0.448860545163403 
825	 0.448469068036575 
826	 0.448347299178364 
827	 0.449062328825374 
828	 0.449177576483489 
829	 0.449418616027654 
830	 0.449454201492165 
831	 0.448907325460583 
832	 0.449544616135975 
833	 0.449624987117564 
834	 0.449230082528127 
835	 0.44972481016031 
836	 0.449531178098943 
837	 0.449218554115224 
838	 0.449246226964728 
839	 0.449580221825269 
840	 0.45005126517418 
841	 0.450016244922515 
842	 0.449507053084539 
843	 0.45012892965894 
844	 0.450160863369293 
845	 0.449918060796594 
846	 0.450095571645889 
847	 0.450406039802742 
848	 0.45065052746473 
849	 0.450823489302309 
850	 0.450937517239331 
851	 0.450447171057146 
852	 0.45026532004255 
853	 0.450525321189256 
854	 0.450646827825062 
855	 0.4500798976261 
856	 0.45035720580778 
857	 0.451316204897844 
858	 0.450647450123363 
859	 0.450032415894755 
860	 0.450189727077147 
861	 0.450845540019514 
862	 0.450310509411322 
863	 0.450201361927578 
864	 0.450292292764734 
865	 0.450337982601524 
866	 0.451668929343236 
867	 0.4514375709922 
868	 0.45069865504513 
869	 0.451237769358759 
870	 0.45113263117201 
871	 0.450886185755742 
872	 0.450966112776396 
873	 0.451542819738336 
874	 0.451416062656954 
875	 0.451092936756197 
876	 0.451082543213631 
877	 0.451595221945688 
878	 0.451267778916497 
879	 0.451129808172865 
880	 0.451408907423273 
881	 0.451138352494322 
882	 0.450307508036144 
883	 0.450301891234601 
884	 0.451402956035974 
885	 0.451869664423908 
886	 0.451806419277378 
887	 0.451033924281995 
888	 0.450108499938339 
889	 0.451139968578353 
890	 0.451158852942334 
891	 0.450775915253073 
892	 0.451074197470899 
893	 0.451206402093047 
894	 0.451947197857277 
895	 0.452396516382518 
896	 0.451662785575747 
897	 0.451227287129369 
898	 0.45104142132803 
899	 0.451059281497161 
900	 0.4511142047878 
901	 0.450536042934155 
902	 0.450738935703868 
903	 0.450839112926516 
904	 0.449248024071639 
905	 0.449259457609442 
906	 0.45012902670883 
907	 0.451002810864835 
908	 0.451286719519439 
909	 0.451211710388085 
910	 0.450718286120749 
911	 0.450151556072355 
912	 0.450168077175971 
913	 0.450810512530929 
914	 0.450438742784366 
915	 0.449271973635587 
916	 0.449585979410155 
917	 0.450112685682182 
918	 0.449935815815253 
919	 0.449395619747066 
920	 0.450193613195409 
921	 0.450421402044933 
922	 0.450950375145905 
923	 0.451640309365433 
924	 0.450314877068492 
925	 0.44940386272304 
926	 0.449032030633353 
927	 0.449210022841421 
928	 0.450518130200172 
929	 0.450811078015588 
930	 0.449933256264743 
931	 0.44891090606008 
932	 0.449824944406834 
933	 0.449211335640122 
934	 0.448298447613277 
935	 0.448336691615438 
936	 0.448097827527056 
937	 0.44893321764622 
938	 0.450572809183857 
939	 0.451514663508449 
940	 0.448711858762371 
941	 0.449465334208818 
942	 0.450036000072328 
943	 0.447261638033542 
944	 0.446369999106899 
945	 0.447202211427341 
946	 0.448576825871481 
947	 0.449089013123512 
948	 0.447956043904227 
949	 0.445656997661616 
950	 0.444371074623222 
951	 0.445140750675611 
952	 0.445536359459901 
953	 0.444880434943941 
954	 0.444828159719725 
955	 0.445995547785365 
956	 0.445145356618106 
957	 0.444034552949342 
958	 0.442839197848336 
959	 0.441957292496161 
960	 0.442977744217093 
961	 0.442728532184032 
962	 0.440482514518104 
963	 0.438053331055657 
964	 0.440324092990812 
965	 0.44015093929614 
966	 0.440247845209846 
967	 0.441611939887808 
968	 0.437961855460337 
969	 0.440716107770975 
970	 0.443036010895787 
971	 0.441105984323574 
972	 0.442730046535779 
973	 0.4418637835648 
974	 0.440039967964147 
975	 0.439275149543139 
976	 0.439817673810962 
977	 0.439342213363009 
978	 0.439095506348966 
979	 0.439144151046367 
980	 0.437713278350898 
981	 0.439261435202164 
982	 0.439823104381088 
983	 0.438340513819709 
984	 0.437949057512691 
985	 0.437453388280739 
986	 0.436915047392286 
987	 0.436953531767275 
988	 0.438231449756739 
989	 0.439501365701384 
990	 0.439852034179466 
991	 0.440465082365924 
992	 0.442463242307918 
993	 0.43837805131737 
994	 0.436621047355845 
995	 0.438214994124446 
996	 0.439627927979384 
997	 0.440508487956538 
998	 0.442920981272794 
999	 0.44276467494912 
1000	 0.437162535791971 
1001	 0.442447247278735 
1002	 0.443180238769406 
1003	 0.4427487917751 
1004	 0.441826954296527 
1005	 0.441161786110468 
1006	 0.439634452700332 
1007	 0.439135747175055 
1008	 0.440000419917508 
1009	 0.44121445159368 
1010	 0.443096907940676 
1011	 0.44405493823958 
1012	 0.444802281670932 
1013	 0.445292975720037 
1014	 0.445645407716497 
1015	 0.444905448383573 
1016	 0.444982424975239 
1017	 0.445163444450694 
1018	 0.444498376529288 
1019	 0.445097626449746 
1020	 0.445737037002258 
1021	 0.445298042977438 
1022	 0.445768864636501 
1023	 0.446269484796075 
1024	 0.446160938759371 
1025	 0.445394482465405 
1026	 0.445053515827036 
1027	 0.445035302817766 
1028	 0.4445040126283 
1029	 0.444747864302845 
1030	 0.446075005066845 
1031	 0.446918327116441 
1032	 0.447373644277789 
1033	 0.447814494498305 
1034	 0.44779434559316 
1035	 0.4475975599904 
1036	 0.446741857792182 
1037	 0.446608314213097 
1038	 0.446486852713156 
1039	 0.44696619997815 
1040	 0.447545778613264 
1041	 0.44804742671241 
1042	 0.448795845162821 
1043	 0.448618117502655 
1044	 0.448375728461518 
1045	 0.44800078309289 
1046	 0.44739227459894 
1047	 0.447256679961488 
1048	 0.446936688081768 
1049	 0.446322895821295 
1050	 0.446514736973942 
1051	 0.447289765062035 
1052	 0.447423767468915 
1053	 0.448022363476347 
1054	 0.448655685743613 
1055	 0.448370618388341 
1056	 0.44852441054564 
1057	 0.449322299452228 
1058	 0.449197344394161 
1059	 0.449292353751995 
1060	 0.44923437111944 
1061	 0.448970352689165 
1062	 0.447776210596622 
1063	 0.447627357444339 
1064	 0.447789588270383 
1065	 0.448454368041208 
1066	 0.44903916125994 
1067	 0.450020907680567 
1068	 0.450512718416063 
1069	 0.450208559487199 
1070	 0.450447816666366 
1071	 0.450609362424155 
1072	 0.450999013586343 
1073	 0.452053025796047 
1074	 0.452487290395331 
1075	 0.452816334919466 
1076	 0.452932095459397 
1077	 0.452870690909969 
1078	 0.452245492117507 
1079	 0.451996257353758 
1080	 0.451726285203182 
1081	 0.451532584502621 
1082	 0.451286404209506 
1083	 0.451383230560321 
1084	 0.451611431423111 
1085	 0.451713974771557 
1086	 0.451933300847222 
1087	 0.452269843150573 
1088	 0.452823583887947 
1089	 0.452884235297828 
1090	 0.452639815721547 
1091	 0.452709039378363 
1092	 0.452918559535733 
1093	 0.45240808130893 
1094	 0.452357440483065 
1095	 0.452217654189424 
1096	 0.451440115110277 
1097	 0.450841494703027 
1098	 0.450795977062162 
1099	 0.451580564258994 
1100	 0.451580090972896 
1101	 0.451426107797901 
1102	 0.451380019244376 
1103	 0.450579016238629 
1104	 0.45039400635456 
1105	 0.450573142554792 
1106	 0.45149559809076 
1107	 0.451568875401144 
1108	 0.451650069200204 
1109	 0.451737029966529 
1110	 0.451320863234788 
1111	 0.450835455318641 
1112	 0.450033581567459 
1113	 0.449755045717706 
1114	 0.449321081864101 
1115	 0.44922537602221 
1116	 0.450076944406672 
1117	 0.450148849474761 
1118	 0.449712394437287 
1119	 0.449500607223244 
1120	 0.449394953876357 
1121	 0.448756929551329 
1122	 0.447931184146905 
1123	 0.447585883988548 
1124	 0.447465271279483 
1125	 0.44743118085356 
1126	 0.447302842043533 
1127	 0.447682501369079 
1128	 0.447590948347218 
1129	 0.447218088037581 
1130	 0.44668690260446 
1131	 0.446089203455414 
1132	 0.445359282076822 
1133	 0.444367730710132 
1134	 0.443160171942074 
1135	 0.442026170960417 
1136	 0.441141601691882 
1137	 0.439901427961523 
1138	 0.43810750004445 
1139	 0.437228286735526 
1140	 0.43678009837278 
1141	 0.436010883653916 
1142	 0.43587369704685 
1143	 0.435112764906862 
1144	 0.433581350802909 
1145	 0.432429852636024 
1146	 0.431288104860929 
1147	 0.430242930323922 
1148	 0.42913312978651 
1149	 0.428469230255299 
1150	 0.427540341559784 
1151	 0.426717897097211 
1152	 0.425619073824731 
1153	 0.424185742538909 
1154	 0.423148618235922 
1155	 0.422277271799423 
1156	 0.421205998135089 
1157	 0.42008153567317 
1158	 0.419228157827295 
1159	 0.418117112503162 
1160	 0.417427590041455 
1161	 0.417455549608178 
1162	 0.417162198471223 
1163	 0.417038703957641 
1164	 0.416517128151196 
1165	 0.416055674066759 
1166	 0.415501529613456 
1167	 0.414825920275104 
1168	 0.413742198511837 
1169	 0.413361164199499 
1170	 0.413311026639202 
1171	 0.413013881731714 
1172	 0.413253416225293 
1173	 0.412983697452109 
1174	 0.412024563735149 
1175	 0.411453765329803 
1176	 0.410872696359252 
1177	 0.410453267927603 
1178	 0.410159944216997 
1179	 0.410056646401447 
1180	 0.409882362179366 
1181	 0.409791457081243 
1182	 0.409694319223144 
1183	 0.409710135778103 
1184	 0.409497798582251 
1185	 0.40912578945314 
1186	 0.408937599347746 
1187	 0.408664220920134 
1188	 0.40845798504539 
1189	 0.408576864564514 
1190	 0.408413295765411 
1191	 0.407925108941452 
1192	 0.407654861079043 
1193	 0.407424837452901 
1194	 0.407126769257974 
1195	 0.407025658313499 
1196	 0.407155977229646 
1197	 0.407128508303303 
1198	 0.407023686630845 
1199	 0.407111489344559 
1200	 0.407295763598589 
1201	 0.407430660563551 
1202	 0.407694197241309 
1203	 0.407885905394399 
1204	 0.407979960911693 
1205	 0.408113009452176 
1206	 0.408270851526039 
1207	 0.408447041947301 
1208	 0.408593953707988 
1209	 0.408761871931657 
1210	 0.409048802421162 
1211	 0.409438495189253 
1212	 0.409817845754509 
1213	 0.410349642161914 
1214	 0.410653435311307 
1215	 0.41088952052786 
1216	 0.411064786674939 
1217	 0.41089165169422 
1218	 0.411171379945108 
1219	 0.411595416154567 
1220	 0.41210460489522 
1221	 0.413293785697437 
1222	 0.413816608921042 
1223	 0.41396822471225 
1224	 0.414149812336379 
1225	 0.414233532245249 
1226	 0.413799747647288 
1227	 0.414018619528437 
1228	 0.414609936225195 
1229	 0.414970325361472 
1230	 0.415604093164623 
1231	 0.415817028143941 
1232	 0.415619087185274 
1233	 0.415758034037422 
1234	 0.415822456001656 
1235	 0.415986634646796 
1236	 0.416416021855566 
1237	 0.416731626766349 
1238	 0.416859861788613 
1239	 0.417271247985312 
1240	 0.417729050553807 
1241	 0.417944551046797 
1242	 0.418286747801 
1243	 0.418713221950671 
1244	 0.418949156682811 
1245	 0.419154634218303 
1246	 0.419289852870517 
1247	 0.419044657153142 
1248	 0.419312705144824 
1249	 0.42004092391376 
1250	 0.420290952065704 
1251	 0.420516785101317 
1252	 0.420775230079064 
1253	 0.420637357304754 
1254	 0.420724815612415 
1255	 0.421221483139232 
1256	 0.421529874322458 
1257	 0.421445386709094 
1258	 0.421255732867444 
1259	 0.421048526407016 
1260	 0.420481643764734 
1261	 0.420396210253293 
1262	 0.420590581039717 
1263	 0.420499053746837 
1264	 0.420533653546484 
1265	 0.420424715098354 
1266	 0.419900873553641 
1267	 0.419879388682842 
1268	 0.420248663406743 
1269	 0.420300855586891 
1270	 0.420367534475252 
1271	 0.420457079376498 
1272	 0.420312143667207 
1273	 0.420334322350725 
1274	 0.420621063368743 
1275	 0.420762847177773 
1276	 0.420730571607365 
1277	 0.420485801499129 
1278	 0.420436669927996 
1279	 0.420360213319726 
1280	 0.420297036262259 
1281	 0.420400562983183 
1282	 0.42028824098586 
1283	 0.419925124820034 
1284	 0.419708150549831 
1285	 0.419467209398888 
1286	 0.419350264859916 
1287	 0.419385981091353 
1288	 0.419358682712004 
1289	 0.41949063739628 
1290	 0.419450483149188 
1291	 0.418831351006405 
1292	 0.418393970295961 
1293	 0.41831773191214 
1294	 0.418055676367501 
1295	 0.41783927745842 
1296	 0.418092838609986 
1297	 0.417844629901894 
1298	 0.417082123398478 
1299	 0.416672971680495 
1300	 0.416233045916919 
1301	 0.415902855410972 
1302	 0.415831973865846 
1303	 0.415518018217001 
1304	 0.415322160993949 
1305	 0.414933861502692 
1306	 0.414303588214511 
1307	 0.413616876422519 
1308	 0.412942969009542 
1309	 0.412059028228366 
1310	 0.411487630130028 
1311	 0.410913921580955 
1312	 0.410368372657653 
1313	 0.409545162432589 
1314	 0.409008655559374 
1315	 0.408587867769714 
1316	 0.407951020162583 
1317	 0.407577942271701 
1318	 0.406938091466841 
1319	 0.405795037797836 
1320	 0.404913030358967 
1321	 0.40413590218426 
1322	 0.403184354697245 
1323	 0.402295605292999 
1324	 0.401305532406257 
1325	 0.40020731552608 
1326	 0.39901393145874 
1327	 0.397700846957961 
1328	 0.396581934046862 
1329	 0.395625117317185 
1330	 0.394631363719953 
1331	 0.393725614688912 
1332	 0.392721377592126 
1333	 0.391753202343545 
1334	 0.390734889864937 
1335	 0.389689067762899 
1336	 0.38876627767725 
1337	 0.38769663401113 
1338	 0.386514536084689 
1339	 0.38524907564843 
1340	 0.383835432795204 
1341	 0.382437095859594 
1342	 0.380887126149517 
1343	 0.379491464997312 
1344	 0.37811528393147 
1345	 0.376887708536328 
1346	 0.375695221362911 
1347	 0.374603371483307 
1348	 0.373734004982061 
1349	 0.372905700327558 
1350	 0.372012286574822 
1351	 0.371016986570689 
1352	 0.370127754563323 
1353	 0.369337495577865 
1354	 0.368166199688716 
1355	 0.366832396834189 
1356	 0.365713584246669 
1357	 0.364272760481608 
1358	 0.363106580048125 
1359	 0.362618678809594 
1360	 0.361447821474256 
1361	 0.359801485696232 
1362	 0.358351239609232 
1363	 0.356805748022618 
1364	 0.355080617627597 
1365	 0.353693415891425 
1366	 0.352441272781667 
1367	 0.350895108448482 
1368	 0.349250151157866 
1369	 0.347247794822018 
1370	 0.345612150495834 
1371	 0.344226724753047 
1372	 0.342592941155206 
1373	 0.341016163941528 
1374	 0.338899569802868 
1375	 0.336745767107891 
1376	 0.334402475179679 
1377	 0.331670416358836 
1378	 0.328807158067083 
1379	 0.325607273241653 
1380	 0.32175553493666 
1381	 0.317988069949901 
1382	 0.314069312543337 
1383	 0.310067098027299 
1384	 0.30592393597287 
1385	 0.301838184544479 
1386	 0.297804237247184 
1387	 0.293067620694291 
1388	 0.287765303845826 
1389	 0.282399716311042 
1390	 0.276849376161582 
1391	 0.271436339233992 
1392	 0.266494941425875 
1393	 0.261493158763136 
1394	 0.25618220285073 
1395	 0.250906905620527 
1396	 0.245547204131666 
1397	 0.239991045320596 
1398	 0.234486745766376 
1399	 0.228962668614747 
1400	 0.223522605787784 
1401	 0.217863277851041 
1402	 0.212792524098956 
1403	 0.208098719977913 
1404	 0.203359557128178 
1405	 0.198787939400497 
1406	 0.194495953144998 
1407	 0.190341343526302 
1408	 0.18630456805814 
1409	 0.182435147421027 
1410	 0.179236539900653 
1411	 0.176027953445746 
1412	 0.172839140040893 
1413	 0.170406278051725 
1414	 0.1679705576008 
1415	 0.165470777780653 
1416	 0.163167683655453 
1417	 0.160448037845215 
1418	 0.157636398454095 
1419	 0.155542903835086 
1420	 0.153842010227301 
1421	 0.152073062665729 
1422	 0.150955166778246 
1423	 0.149407714167945 
1424	 0.147441719716632 
1425	 0.145829544065758 
1426	 0.144159046943849 
1427	 0.142869548199385 
1428	 0.14188415894741 
1429	 0.140844580207541 
1430	 0.140196246428584 
1431	 0.13936005544069 
1432	 0.138277994074993 
1433	 0.137488494789716 
1434	 0.136858737568297 
1435	 0.136152669215834 
1436	 0.135822592114679 
1437	 0.135563534865463 
1438	 0.135425769479348 
1439	 0.135433231422402 
1440	 0.135054066214743 
1441	 0.134760224675689 
1442	 0.134212325763063 
1443	 0.133436791332333 
1444	 0.133126645553166 
1445	 0.133101549950371 
1446	 0.132834998670168 
1447	 0.132797577591013 
1448	 0.132612770190926 
1449	 0.132286860917347 
1450	 0.131981824686889 
1451	 0.131525363924004 
1452	 0.131250138856615 
1453	 0.130750712650702 
1454	 0.130716759949338 
1455	 0.131425115401645 
1456	 0.131719557464223 
1457	 0.132153988679667 
1458	 0.132130129457445 
1459	 0.13221583147293 
1460	 0.131909170269202 
1461	 0.131490178962733 
1462	 0.131797657846223 
1463	 0.132209469375845 
1464	 0.132424132406491 
1465	 0.13315237403592 
1466	 0.133784583530965 
1467	 0.133676951590617 
1468	 0.134067575206578 
1469	 0.134631098940681 
1470	 0.134958959402067 
1471	 0.135474483150786 
1472	 0.136331248343947 
1473	 0.136863813710019 
1474	 0.137180275189855 
1475	 0.137752284442332 
1476	 0.138349228828699 
1477	 0.139097368847811 
1478	 0.139978120382698 
1479	 0.140870597372662 
1480	 0.141898972248964 
1481	 0.142812962412005 
1482	 0.143676171456114 
1483	 0.144677474888087 
1484	 0.145844516035298 
1485	 0.146860640147743 
1486	 0.14803611387315 
1487	 0.148726390811478 
1488	 0.14949140444269 
1489	 0.150099517793817 
1490	 0.150673424741262 
1491	 0.151842833473508 
1492	 0.152981134244946 
1493	 0.15386061815816 
1494	 0.154908440288735 
1495	 0.156158236849189 
1496	 0.157510959538023 
1497	 0.158971746227007 
1498	 0.160177653881218 
1499	 0.160950515720837 
1500	 0.161694574040044 
1501	 0.162612770846685 
1502	 0.16370903242763 
1503	 0.16528389798791 
1504	 0.166571072797576 
1505	 0.167775007539289 
1506	 0.168916514533699 
1507	 0.169871352134904 
1508	 0.171079344450261 
1509	 0.172441778870552 
1510	 0.17369590716598 
1511	 0.175124925435109 
1512	 0.176407530563059 
1513	 0.177540586570127 
1514	 0.178644737965213 
1515	 0.179733166141478 
1516	 0.180671472790738 
1517	 0.18135259502451 
1518	 0.182237397033237 
1519	 0.183100552867442 
1520	 0.184099367781334 
1521	 0.185313166276837 
1522	 0.186480428725102 
1523	 0.187855841172067 
1524	 0.189174007332401 
1525	 0.19015697213608 
1526	 0.191092062749614 
1527	 0.191491821148462 
1528	 0.192011347443582 
1529	 0.19286968170132 
1530	 0.193718231430541 
1531	 0.194923488125909 
1532	 0.196089399834285 
1533	 0.197238736269443 
1534	 0.198255084700656 
1535	 0.199128572524741 
1536	 0.199703918449783 
1537	 0.200646480757589 
1538	 0.201554490056613 
1539	 0.202757907974563 
1540	 0.204419122981947 
1541	 0.205670962039007 
1542	 0.206913667861476 
1543	 0.207976317129641 
1544	 0.208853705589038 
1545	 0.209695331541928 
1546	 0.210438287410777 
1547	 0.211119459322178 
1548	 0.211607392192597 
1549	 0.212237963485792 
1550	 0.212808302978528 
1551	 0.21354112489402 
1552	 0.214422404627556 
1553	 0.21524389605546 
1554	 0.216336181016366 
1555	 0.21713157702488 
1556	 0.217793341793566 
1557	 0.21826961381171 
1558	 0.218790290831542 
1559	 0.219147584414543 
1560	 0.219961569728684 
1561	 0.221094709516352 
1562	 0.222361224455035 
1563	 0.223597653744441 
1564	 0.224396260153482 
1565	 0.224957998759396 
1566	 0.225368469331648 
1567	 0.225995384410214 
1568	 0.226860531257477 
1569	 0.227889702048195 
1570	 0.228860295927039 
1571	 0.22962021638127 
1572	 0.230366198142645 
1573	 0.230990995813056 
1574	 0.231110140496537 
1575	 0.231057832373914 
1576	 0.231497975354027 
1577	 0.231776334324783 
1578	 0.232633314017696 
1579	 0.234339968099063 
1580	 0.235370775772098 
1581	 0.236400103387602 
1582	 0.237257638810618 
1583	 0.238018702272301 
1584	 0.238529367935319 
1585	 0.238617238306907 
1586	 0.239163543927617 
1587	 0.239542389576481 
1588	 0.24012194258423 
1589	 0.241284841644295 
1590	 0.242003521623106 
1591	 0.242508853069327 
1592	 0.243073542480333 
1593	 0.243382866830964 
1594	 0.243986440145958 
1595	 0.244861553784383 
1596	 0.245596594647949 
1597	 0.24650205141111 
1598	 0.247258861430635 
1599	 0.247932109702896 
1600	 0.248252131619859 
1601	 0.248154364858766 
1602	 0.248523421080345 
1603	 0.248759616363826 
1604	 0.249226194421483 
1605	 0.250364312960325 
1606	 0.250950193703187 
1607	 0.25116255155419 
1608	 0.251582079511901 
1609	 0.251639395055782 
1610	 0.252324617679926 
1611	 0.253292030101815 
1612	 0.254227460715305 
1613	 0.255034766088956 
1614	 0.255676340348685 
1615	 0.256074630545562 
1616	 0.256730934165276 
1617	 0.257792358820166 
1618	 0.2583174233651 
1619	 0.25863859486461 
1620	 0.25882688929291 
1621	 0.258738703949133 
1622	 0.258889064729235 
1623	 0.259475522470363 
1624	 0.260133850570182 
1625	 0.260481218005963 
1626	 0.261019482869463 
1627	 0.26145101631313 
1628	 0.261599921964726 
1629	 0.262072431343981 
1630	 0.262733126447895 
1631	 0.263288412411441 
1632	 0.263975197057732 
1633	 0.264405853316837 
1634	 0.264810098524782 
1635	 0.265186280983738 
1636	 0.265332560113485 
1637	 0.265464211540367 
1638	 0.265469490373617 
1639	 0.265776172518441 
1640	 0.266240828447239 
1641	 0.266649708949951 
1642	 0.267262953963515 
1643	 0.267616342988558 
1644	 0.267835997163661 
1645	 0.267827570169324 
1646	 0.267828500408903 
1647	 0.267570345878375 
1648	 0.266675798894226 
1649	 0.266406899001674 
1650	 0.266093029063889 
1651	 0.266298393477787 
1652	 0.267338617118153 
1653	 0.26762531402871 
1654	 0.268018302939335 
1655	 0.267936826349042 
1656	 0.266971285994717 
1657	 0.266773141953006 
1658	 0.266657620992207 
1659	 0.266779113952714 
1660	 0.267621523492007 
1661	 0.267807063890195 
1662	 0.267594173578069 
1663	 0.26773677028626 
1664	 0.267937487009299 
1665	 0.267824691188091 
1666	 0.267848986332957 
1667	 0.267722163754011 
1668	 0.266977383709519 
1669	 0.266682314604332 
1670	 0.266592731208237 
1671	 0.266659224186487 
1672	 0.267141509894073 
1673	 0.267224214758206 
1674	 0.267462129899737 
1675	 0.267283239768713 
1676	 0.266396132184805 
1677	 0.26587546536618 
1678	 0.265253541410873 
1679	 0.264891338513392 
1680	 0.26503493356766 
1681	 0.264736141952879 
1682	 0.264296363505893 
1683	 0.263832294344195 
1684	 0.263059993451009 
1685	 0.262436102931999 
1686	 0.262072733258618 
1687	 0.261421416772245 
1688	 0.260502020529755 
1689	 0.259696208582182 
1690	 0.258653242687478 
1691	 0.257936577359812 
1692	 0.257389896633267 
1693	 0.256999660367837 
1694	 0.257081683577249 
1695	 0.256786891720398 
1696	 0.256407152043729 
1697	 0.256040174321261 
1698	 0.255458655804142 
1699	 0.254901638364541 
1700	 0.254370316646805 
1701	 0.253895221251421 
1702	 0.253357002606813 
1703	 0.252874186088268 
1704	 0.252409283227859 
1705	 0.252129929287841 
1706	 0.252284885147168 
1707	 0.251873756184164 
1708	 0.25115804557862 
1709	 0.250639236556717 
1710	 0.24954009998945 
1711	 0.248969669695486 
1712	 0.248751960670152 
1713	 0.248899165831902 
1714	 0.250090232293009 
1715	 0.250217552779385 
1716	 0.250020256171544 
1717	 0.249826260078224 
1718	 0.248346665684839 
1719	 0.247862184251105 
1720	 0.248640856222362 
1721	 0.248587162927693 
1722	 0.248417527354083 
1723	 0.248206072377293 
1724	 0.247547880909924 
1725	 0.246844291233133 
1726	 0.246022986969239 
1727	 0.245478175376536 
1728	 0.244721917173239 
1729	 0.244307218050741 
1730	 0.245055662443936 
1731	 0.244587937617354 
1732	 0.242986098124683 
1733	 0.242256488303383 
1734	 0.241112077084776 
1735	 0.240451760177805 
1736	 0.240920087814296 
1737	 0.240933816580253 
1738	 0.241020947736228 
1739	 0.240657647611618 
1740	 0.239775067128001 
1741	 0.239338791141895 
1742	 0.238674612992516 
1743	 0.238157730433637 
1744	 0.238332447193468 
1745	 0.238074616844024 
1746	 0.237362544142297 
1747	 0.236925643922109 
1748	 0.236364757658792 
1749	 0.236095652991397 
1750	 0.23624359560964 
1751	 0.236107809375747 
1752	 0.23644127047955 
1753	 0.235888579768267 
1754	 0.234686861314727 
1755	 0.233443644747896 
1756	 0.231090751326658 
1757	 0.229718967502604 
1758	 0.228385929287446 
1759	 0.228011301382472 
1760	 0.229078352003821 
1761	 0.229485382611411 
1762	 0.230502593134397 
1763	 0.230690729826576 
1764	 0.230036156809031 
1765	 0.229578624699423 
1766	 0.228828868260005 
1767	 0.228254478038725 
1768	 0.227366556962625 
1769	 0.22712916098491 
1770	 0.227557874060753 
1771	 0.227405828532189 
1772	 0.227288790157354 
1773	 0.227373204904372 
1774	 0.227221120468499 
1775	 0.227190681889061 
1776	 0.227746453382296 
1777	 0.227855286306924 
1778	 0.22698872011998 
1779	 0.227172844706136 
1780	 0.228581712296842 
1781	 0.228540080437049 
1782	 0.227701499110893 
1783	 0.228057331118393 
1784	 0.228429718250918 
1785	 0.22841060791558 
1786	 0.229164728168943 
1787	 0.229672648768052 
1788	 0.229157085815207 
1789	 0.228888655251528 
1790	 0.229451949441412 
1791	 0.229597382911664 
1792	 0.228816879922181 
1793	 0.228744699047413 
1794	 0.229203152510397 
1795	 0.229532282508356 
1796	 0.230067312347181 
1797	 0.230344340541578 
1798	 0.230734667917017 
1799	 0.230693622624473 
1800	 0.230261974504455 
1801	 0.235017552775976 
1802	 0.23730411123761 
1803	 0.236227736480155 
1804	 0.232647324103366 
1805	 0.231460349419704 
1806	 0.228572976125995 
1807	 0.228236848744773 
1808	 0.230791739537119 
1809	 0.233421975119313 
1810	 0.234228496917728 
1811	 0.235433604789306 
1812	 0.234683164423942 
1813	 0.234233374446087 
1814	 0.233929665981077 
1815	 0.233699064896587 
1816	 0.23345002840034 
1817	 0.232857824687569 
1818	 0.233076693121804 
1819	 0.234262030822495 
1820	 0.234661465586257 
1821	 0.234267831947711 
1822	 0.23290912211475 
1823	 0.233244143722729 
1824	 0.23293316049083 
1825	 0.233948471549379 
1826	 0.23841190813506 
1827	 0.239791403340664 
1828	 0.239787233686894 
1829	 0.240192305334518 
1830	 0.238578380650038 
1831	 0.237342061213329 
1832	 0.237937534235802 
1833	 0.238392475587558 
1834	 0.238989672793183 
1835	 0.241830149826892 
1836	 0.241069140395201 
1837	 0.238295310273283 
1838	 0.236139868416129 
1839	 0.232577423330827 
1840	 0.230016243967517 
1841	 0.231312663040544 
1842	 0.232323128695398 
1843	 0.23317156782318 
1844	 0.234667200384378 
1845	 0.234877017033171 
1846	 0.23334248579732 
1847	 0.233014702980803 
1848	 0.233454230293566 
1849	 0.232067212736591 
1850	 0.230996556884467 
1851	 0.229045725906252 
1852	 0.225044445885633 
1853	 0.224065978933107 
1854	 0.222924933916543 
1855	 0.223127454522234 
1856	 0.222895860145994 
1857	 0.223637614922232 
1858	 0.222326406079981 
1859	 0.221461583178652 
1860	 0.217564331974296 
1861	 0.212748383187683 
1862	 0.208712355749485 
1863	 0.204606750074478 
1864	 0.201967691149356 
1865	 0.200526457020358 
1866	 0.199822452208663 
1867	 0.197229254453999 
1868	 0.19345201438702 
1869	 0.189665285987781 
1870	 0.186481538224829 
1871	 0.180420927058043 
1872	 0.175657826372027 
1873	 0.173685575608373 
1874	 0.169891493918969 
1875	 0.166590368274563 
1876	 0.165047394471788 
1877	 0.159153524384651 
1878	 0.153429830555099 
1879	 0.146230879574892 
1880	 0.141660586044478 
1881	 0.135814006263753 
1882	 0.13133095412062 
1883	 0.128688792343111 
1884	 0.124440295735931 
1885	 0.121303597160565 
1886	 0.119536501811082 
1887	 0.116719822100296 
1888	 0.114281326315854 
1889	 0.11096154070002 
1890	 0.106433594086848 
1891	 0.101473199309513 
1892	 9.87633431174179E-02 
1893	 9.52328630670089E-02 
1894	 9.10717759809661E-02 
1895	 8.80164207802368E-02 
1896	 8.56473641464211E-02 
1897	 8.35917726044717E-02 
1898	 8.32925213707033E-02 
1899	 8.26675603989523E-02 
1900	 8.26711765591408E-02 
1901	 8.17255437996288E-02 
1902	 8.04617390313653E-02 
1903	 7.90375366943133E-02 
1904	 7.84677229738719E-02 
1905	 0.077822060758992 
1906	 7.69088250040798E-02 
1907	 7.62900747606826E-02 
1908	 7.47301940027368E-02 
1909	 7.30395230616262E-02 
1910	 7.14421361960591E-02 
1911	 6.97392562189175E-02 
1912	 6.80770092141884E-02 
1913	 6.63375476923657E-02 
1914	 6.47017468641751E-02 
1915	 6.36440037999272E-02 
1916	 0.063361163337683 
1917	 6.32313139208396E-02 
1918	 6.34865658832436E-02 
1919	 6.31814151523169E-02 
1920	 6.45378095186629E-02 
1921	 6.47847074450892E-02 
1922	 0.064249217332034 
1923	 6.44271190792971E-02 
1924	 6.54485258094404E-02 
1925	 0.063820420489876 
1926	 6.37941903569081E-02 
1927	 6.50393991124918E-02 
1928	 6.39821167452881E-02 
1929	 6.56755258671632E-02 
1930	 0.067059495894122 
1931	 6.76048363269303E-02 
1932	 6.97452475183982E-02 
1933	 7.00447345309963E-02 
1934	 6.99678548210538E-02 
1935	 6.87521803780682E-02 
1936	 6.82598549493564E-02 
1937	 6.71253861714304E-02 
1938	 6.68972328581952E-02 
1939	 6.69154381234505E-02 
1940	 6.85629953394123E-02 
1941	 6.88645068999182E-02 
1942	 6.84241606611559E-02 
1943	 6.88527112899588E-02 
1944	 6.80969351465989E-02 
1945	 6.78484943687457E-02 
1946	 0.06824239357376 
1947	 6.79719645102148E-02 
1948	 6.68472566050563E-02 
1949	 6.71275345304701E-02 
1950	 6.69466748043947E-02 
1951	 6.61704733647046E-02 
1952	 6.56711109974635E-02 
1953	 6.50403481025942E-02 
1954	 6.39743377217429E-02 
1955	 6.39644705138593E-02 
1956	 6.43920178117696E-02 
1957	 6.53340039802377E-02 
1958	 6.62340428217594E-02 
1959	 6.83757478035662E-02 
1960	 6.91015740113511E-02 
1961	 0.069009700174155 
1962	 6.98688438017856E-02 
1963	 6.92932651992806E-02 
1964	 6.88069602462335E-02 
1965	 6.98339243542216E-02 
1966	 6.88950626223367E-02 
1967	 6.78272537295583E-02 
1968	 0.068461765140885 
1969	 6.90489057527993E-02 
1970	 7.04381849378326E-02 
1971	 7.11949240996326E-02 
1972	 7.21098125515111E-02 
1973	 7.25143740018637E-02 
1974	 7.29205614360704E-02 
1975	 7.17737461704357E-02 
1976	 7.03426495811656E-02 
1977	 6.98991887878653E-02 
1978	 6.93066828964049E-02 
1979	 6.92703289832945E-02 
1980	 6.98401932416952E-02 
1981	 7.19344957819326E-02 
1982	 7.31406834685183E-02 
1983	 0.07494286958752 
1984	 7.56195162353348E-02 
1985	 7.52674198447712E-02 
1986	 7.55277670757517E-02 
1987	 7.54490204741193E-02 
1988	 7.48089363275446E-02 
1989	 7.56209669764405E-02 
1990	 7.72395293289303E-02 
1991	 7.89820425473927E-02 
1992	 8.02206657449958E-02 
1993	 0.080342903312508 
1994	 0.078379593225889 
1995	 7.92034737055881E-02 
1996	 8.11178396044946E-02 
1997	 8.18637492917125E-02 
1998	 0.084848264989343 
1999	 8.53737421435191E-02 
2000	 8.34757357868422E-02 
2001	 8.10194641936895E-02 
2002	 7.86176829262921E-02 
2003	 0.078551222311013 
2004	 7.95300553008823E-02 
2005	 8.03228292974006E-02 
2006	 8.19798289437823E-02 
2007	 8.47969422331465E-02 
2008	 8.68974258292123E-02 
2009	 8.94969272017156E-02 
2010	 0.09202036112054 
2011	 9.59666897913066E-02 
2012	 9.75827273394901E-02 
2013	 0.099430820165182 
2014	 9.77021650040883E-02 
2015	 9.32131925867897E-02 
2016	 8.93834082029208E-02 
2017	 8.81678570339436E-02 
2018	 8.74075184823651E-02 
2019	 8.69793131558937E-02 
2020	 0.08854722066096 
2021	 9.00231564535533E-02 
2022	 9.10242364495903E-02 
2023	 9.28908412323638E-02 
2024	 9.69837855780607E-02 
2025	 0.099357983589581 
2026	 0.102044959659893 
2027	 0.103005195488892 
2028	 0.102570574212528 
2029	 0.101534723084494 
2030	 0.101102549810716 
2031	 9.90750238732433E-02 
2032	 9.82538670560144E-02 
2033	 9.83283464706791E-02 
2034	 0.098538253827866 
2035	 9.92363938124202E-02 
2036	 0.098963389673317 
2037	 9.90687866643484E-02 
2038	 9.87950149850584E-02 
2039	 9.67375820929171E-02 
2040	 9.62149299866047E-02 
2041	 9.63362064719176E-02 
2042	 9.63819671038132E-02 
2043	 0.100122416755799 
2044	 0.10126666204017 
2045	 0.102182726513789 
2046	 0.103237966522441 
2047	 0.104483781961221 
2048	 0.104907477703571 
2049	 0.105363468242002 
2050	 0.106507409727551 
2051	 0.107087816038548 
2052	 0.106531088672803 
2053	 0.106143344750258 
2054	 0.106390995203777 
2055	 0.106181363925356 
2056	 0.10554791784647 
2057	 0.104433486605311 
2058	 0.101672369952738 
2059	 9.99629216565093E-02 
2060	 0.100182764168491 
2061	 0.10068366805145 
2062	 0.10206654197429 
2063	 0.107626312197264 
2064	 0.108914108987559 
2065	 0.108887526147999 
2066	 0.107870301579024 
2067	 0.102905934361096 
2068	 0.101583386686693 
2069	 0.100951024014641 
2070	 0.100706837543435 
2071	 0.103689999717562 
2072	 0.104119017214509 
2073	 0.105498636415835 
2074	 0.106545964855431 
2075	 0.108397463932543 
2076	 0.112413628130355 
2077	 0.113498064687211 
2078	 0.113190880884877 
2079	 0.113679967790821 
2080	 0.112391558943887 
2081	 0.112209844036142 
2082	 0.113574834281823 
2083	 0.113672750348052 
2084	 0.113568420900266 
2085	 0.1128561145631 
2086	 0.109600387012967 
2087	 0.109708689029821 
2088	 0.109275303987407 
2089	 0.109717573239999 
2090	 0.111738686010333 
2091	 0.116757080023029 
2092	 0.118846562296483 
2093	 0.120748380427241 
2094	 0.122086033717017 
2095	 0.123195058811327 
2096	 0.12278308938249 
2097	 0.121894751662255 
2098	 0.119823884414159 
2099	 0.11281446112643 
2100	 0.110434457296497 
2101	 0.10978341379766 
2102	 0.109876760716435 
2103	 0.11333052705452 
2104	 0.116266287654671 
2105	 0.118995156121157 
2106	 0.122174998205185 
2107	 0.123510687688313 
2108	 0.124641781559861 
2109	 0.124493864407371 
2110	 0.122641669800644 
2111	 0.120568110238665 
2112	 0.116206640824552 
2113	 0.114869132723692 
2114	 0.111998527968805 
2115	 0.113203493688444 
2116	 0.120972714288518 
2117	 0.124941134091886 
2118	 0.130896333235725 
2119	 0.133871715828798 
2120	 0.132682168519507 
2121	 0.128605140164825 
2122	 0.127781292908151 
2123	 0.125275404306768 
2124	 0.126543487240492 
2125	 0.132635781324285 
2126	 0.134562899893121 
2127	 0.135941532755676 
2128	 0.136920407050907 
2129	 0.136365368484654 
2130	 0.135301669176026 
2131	 0.135804242251329 
2132	 0.133278691192974 
2133	 0.125370816178424 
2134	 0.122041020059211 
2135	 0.117608056594972 
2136	 0.116402745801854 
2137	 0.120587191909025 
2138	 0.123513315403477 
2139	 0.126448510924288 
2140	 0.130794991276674 
2141	 0.132343424344812 
2142	 0.13291527787518 
2143	 0.133165892706213 
2144	 0.131535565010868 
2145	 0.13169922026423 
2146	 0.131297257880096 
2147	 0.132445834820391 
2148	 0.135548813122513 
2149	 0.137592673408849 
2150	 0.140360218479088 
2151	 0.142312257103125 
2152	 0.144523487920195 
2153	 0.144767247291567 
2154	 0.142516246034851 
2155	 0.142990608832179 
2156	 0.140368150616421 
2157	 0.135379467019079 
2158	 0.134183460074784 
2159	 0.134016070979508 
2160	 0.134409734274583 
2161	 0.137374213101393 
2162	 0.138369202022414 
2163	 0.138868353490473 
2164	 0.138749071832392 
2165	 0.138621598225528 
2166	 0.137102298664267 
2167	 0.134518578425546 
2168	 0.131963843208852 
2169	 0.125784851010286 
2170	 0.124744280589795 
2171	 0.126744997085584 
2172	 0.128182662712522 
2173	 0.132807809952762 
2174	 0.136762269869112 
2175	 0.138960015551601 
2176	 0.137157981039349 
2177	 0.134901236306009 
2178	 0.129185724337859 
2179	 0.128248019310972 
2180	 0.127954118584463 
2181	 0.127642767753122 
2182	 0.130048993693803 
2183	 0.131332939452421 
2184	 0.131215799172946 
2185	 0.131199619685935 
2186	 0.132012144273829 
2187	 0.132554728181751 
2188	 0.132993113238793 
2189	 0.132514038692236 
2190	 0.130857566375723 
2191	 0.130998438324916 
2192	 0.13131765345924 
2193	 0.131056192801289 
2194	 0.132425056104928 
2195	 0.132811137321736 
2196	 0.131185898607582 
2197	 0.132495591865733 
2198	 0.134393739267026 
2199	 0.138982650747581 
2200	 0.140386113233786 
2201	 0.141514771855561 
2202	 0.141608785221564 
2203	 0.138866915419419 
2204	 0.139565138392832 
2205	 0.142240221577348 
2206	 0.142631184138566 
2207	 0.143906709037575 
2208	 0.143339833089511 
2209	 0.140138470211332 
2210	 0.138597522785183 
2211	 0.136480472970172 
2212	 0.136062237624589 
2213	 0.13632816190146 
2214	 0.13694917196786 
2215	 0.14027366620332 
2216	 0.141580380381269 
2217	 0.141510793417934 
2218	 0.142629262431673 
2219	 0.142096122890319 
2220	 0.140709134890593 
2221	 0.140836486499836 
2222	 0.141494869760175 
2223	 0.142110305668564 
2224	 0.14315879403617 
2225	 0.144500770946318 
2226	 0.147364771656956 
2227	 0.147322895843868 
2228	 0.146348855482183 
2229	 0.145315525703135 
2230	 0.140657091266159 
2231	 0.139879198752973 
2232	 0.142876015076935 
2233	 0.142408110796531 
2234	 0.141214892171458 
2235	 0.140437199368864 
2236	 0.137184567136234 
2237	 0.13622547545707 
2238	 0.137705296863521 
2239	 0.13858136475033 
2240	 0.141285844635655 
2241	 0.140569736842836 
2242	 0.141366501658659 
2243	 0.139919840468028 
2244	 0.134578097789667 
2245	 0.131070102343104 
2246	 0.127247232190857 
2247	 0.123992829191863 
2248	 0.122267480686697 
2249	 0.121990869307287 
2250	 0.123715616535195 
2251	 0.129325459342237 
2252	 0.129482048503305 
2253	 0.129390406847805 
2254	 0.128033297548125 
2255	 0.118854336308672 
2256	 0.11881743236685 
2257	 0.125046061411 
2258	 0.128973727344318 
2259	 0.137898121341995 
2260	 0.141557969409928 
2261	 0.14202193671335 
2262	 0.141861243784692 
2263	 0.138874859868749 
2264	 0.13666441672327 
2265	 0.133304937100899 
2266	 0.130610452391492 
2267	 0.128085140376903 
2268	 0.126030251575312 
2269	 0.123230507390301 
2270	 0.119914086258967 
2271	 0.118904984904395 
2272	 0.117569227967301 
2273	 0.117804929053053 
2274	 0.118000623894662 
2275	 0.116219226132894 
2276	 0.114420961063608 
2277	 0.110999931868849 
2278	 0.105991604944043 
2279	 0.10208403198649 
2280	 9.59909055701246E-02 
2281	 9.37316997124421E-02 
2282	 9.30424881487221E-02 
2283	 9.25477201349361E-02 
2284	 9.33588749780361E-02 
2285	 0.096602296237489 
2286	 0.103519246118939 
2287	 0.106146860186514 
2288	 0.110256463083096 
2289	 0.111234769531429 
2290	 0.10684397798585 
2291	 0.104406713572153 
2292	 9.97102586973196E-02 
2293	 0.100605406519884 
2294	 0.103457242061625 
2295	 0.107676112801582 
2296	 0.121758858619554 
2297	 0.125837537294714 
2298	 0.123796275223952 
2299	 0.12293415136336 
2300	 0.118962516452174 
2301	 0.112094464456011 
2302	 0.108475635311871 
2303	 0.103252965293781 
2304	 9.85932491339944E-02 
2305	 9.89730080632973E-02 
2306	 9.98555369196614E-02 
2307	 0.109001702347677 
2308	 0.115596644861333 
2309	 0.117335191635688 
2310	 0.115527083386797 
2311	 0.106915913266778 
2312	 9.90947348787367E-02 
2313	 9.25412137480725E-02 
2314	 9.13167526593403E-02 
2315	 9.25701766171463E-02 
2316	 9.21172425064086E-02 
2317	 9.20825163298698E-02 
2318	 9.20987175259698E-02 
2319	 9.17812218299317E-02 
2320	 9.09030633379552E-02 
2321	 9.00005913125946E-02 
2322	 9.12101207012795E-02 
2323	 9.23003168334673E-02 
2324	 9.41464170365889E-02 
2325	 9.94875577653217E-02 
2326	 0.100729962039071 
2327	 9.88594675807183E-02 
2328	 9.98401743236853E-02 
2329	 0.100164371403963 
2330	 0.101945046320095 
2331	 0.106068552609403 
2332	 0.109103494316668 
2333	 0.114996485397913 
2334	 0.115380395297102 
2335	 0.11120565984227 
2336	 0.108994066386472 
2337	 0.104139610051259 
2338	 9.89514951794853E-02 
2339	 9.26137020077256E-02 
2340	 9.19440020650238E-02 
2341	 9.20773592648264E-02 
2342	 0.095374218545563 
2343	 9.88616945005704E-02 
2344	 0.104219070162 
2345	 0.107403420385814 
2346	 0.10585946873955 
2347	 0.102646226273816 
2348	 9.97409725087814E-02 
2349	 0.100818721804759 
2350	 9.87538063844644E-02 
2351	 9.90687242425338E-02 
2352	 0.101955623932822 
2353	 0.098958888928726 
2354	 0.102475274280993 
2355	 0.113497396103514 
2356	 0.120305451577687 
2357	 0.123781304447959 
2358	 0.11881256836022 
2359	 0.116518943010502 
2360	 0.116315229142553 
2361	 0.11146724908109 
2362	 0.111608671483426 
2363	 0.104908812108732 
2364	 9.86043012093822E-02 
2365	 0.102280095118659 
2366	 0.103396588587417 
2367	 0.103485014188262 
2368	 0.109643012205653 
2369	 0.109475734582108 
2370	 0.106194650852244 
2371	 0.10539807043343 
2372	 9.75086737957129E-02 
2373	 8.39096793197753E-02 
2374	 8.07128729269472E-02 
2375	 8.76669876916856E-02 
2376	 0.083888616333103 
2377	 8.62992556263692E-02 
2378	 9.48399672497823E-02 
2379	 9.35513679731048E-02 
2380	 9.79239522744828E-02 
2381	 0.107033024149167 
2382	 9.98756842446987E-02 
2383	 0.086327634276578 
2384	 7.90318922962971E-02 
2385	 7.87874754025668E-02 
2386	 9.00202047433645E-02 
2387	 8.88042713179783E-02 
2388	 8.88518349751367E-02 
2389	 0.086118722413659 
2390	 6.70580732547033E-02 
2391	 6.34602774167009E-02 
2392	 7.20233176825745E-02 
2393	 8.08567597176873E-02 
2394	 9.62944716578846E-02 
2395	 0.101425664992199 
2396	 0.102903499180438 
2397	 0.104493952742074 
2398	 0.101240130702234 
2399	 9.59464206961322E-02 
2400	 9.39727228941189E-02 
2401	 8.91249368397133E-02 
2402	 7.66795620208724E-02 
2403	 7.53633885922187E-02 
2404	 8.14605631331543E-02 
2405	 7.84916926485196E-02 
2406	 6.92997871882823E-02 
2407	 5.77211680240884E-02 
2408	 3.90024396822521E-02 
2409	 3.50786155681593E-02 
2410	 3.85133490125989E-02 
2411	 5.45355597915529E-02 
2412	 9.14768233921758E-02 
2413	 0.105137128946966 
2414	 0.112168383365302 
2415	 0.115779867179109 
2416	 0.104780972073279 
2417	 0.100122379911461 
2418	 0.101382918212042 
2419	 9.59057933877908E-02 
2420	 0.086986065621284 
2421	 8.49089128844545E-02 
2422	 8.18686508252171E-02 
2423	 6.89412054343134E-02 
2424	 0.054496287084521 
2425	 4.31741606313268E-02 
2426	 0.020920879666849 
2427	 1.23761609092993E-02 
2428	 1.87448423468732E-02 
2429	 0.018109914518076 
2430	 1.79219801019894E-02 
2431	 2.91801136338762E-02 
2432	 4.72850928413708E-02 
2433	 4.92898700915203E-02 
2434	 4.75159635961648E-02 
2435	 0.039212479268741 
2436	 7.42311982270793E-03 
2437	 1.35834012457985E-02 
2438	 4.17137605083287E-02 
2439	 6.51816778413732E-02 
2440	 0.125582118186249 
2441	 0.142751734805911 
2442	 0.127665426123688 
2443	 0.104099624620399 
2444	 9.34730148397392E-02 
2445	 9.82127975489588E-02 
2446	 8.62744418530311E-02 
2447	 9.56042690344422E-02 
2448	 7.50328562287188E-02 
2449	 4.19080788259888E-02 
2450	 3.66927343003445E-02 
2451	 3.17006997908693E-03 
2452	-7.7981638470212E-03 
2453	-8.03354025074325E-03 
2454	-7.26059382198719E-03 
2455	 2.83745103913868E-02 
2456	 6.13272451320885E-02 
2457	 9.17972917378163E-02 
2458	 9.76845154094147E-02 
2459	 6.62394599323768E-02 
2460	 5.49209264608741E-02 
2461	 5.51386594230856E-02 
2462	 6.66027370995746E-02 
2463	 9.18978289166349E-02 
2464	 7.95507785249961E-02 
2465	 7.06422157618199E-02 
2466	 5.81604336476299E-02 
2467	 4.98977275792845E-02 
2468	 8.13026634101266E-02 
2469	 9.80336611982296E-02 
2470	 0.109126992054841 
2471	 0.118138041917241 
2472	 0.122551093180291 
2473	 8.85180593720237E-02 
2474	 4.02800418996205E-02 
2475	 2.56758800677228E-02 
2476	-1.26656523299381E-02 
2477	-3.59630911852387E-02 
2478	-1.04882317116092E-02 
2479	-1.62823754059361E-02 
2480	-2.23705570121429E-02 
2481	 8.09682631449449E-03 
2482	 0.030261092868717 
2483	 4.19981970322721E-02 
2484	 5.30988599279359E-02 
2485	 4.11920074874226E-02 
2486	 7.35405481950999E-03 
2487	-3.87538526466338E-03 
2488	-6.85632176546071E-03 
2489	 1.36808224959257E-03 
2490	 2.48770866368797E-02 
2491	 2.39949471565083E-02 
2492	 0.059347733517663 
2493	 8.83833360663284E-02 
2494	 0.111030790452826 
2495	 0.137175676504563 
2496	 0.12000213617642 
2497	 0.115503451930983 
2498	 8.10263483728376E-02 
2499	 9.17653321622187E-02 
2500	 0.148845474275881 
