Wavelength	MAC_ARB_099_355_210514_L00004.asd
350	-0.262455838023349 
351	-0.246443106633463 
352	-0.147150989925195 
353	-0.467924149822459 
354	-0.114150214490122 
355	-4.16765774369735E-03 
356	-3.50691986603103E-02 
357	-0.465420346459313 
358	-0.311436331597214 
359	-0.113716303476225 
360	-0.172826042863152 
361	-8.78974545302535E-02 
362	-0.166494769623659 
363	-0.225310784936796 
364	-1.87145009978792E-03 
365	 0.011594838173384 
366	 2.91499056396817E-02 
367	 8.16019717006895E-02 
368	-2.96944842410394E-02 
369	-6.00220209503409E-02 
370	-9.2440765944234E-03 
371	 5.58968957923427E-02 
372	 3.97076309247251E-02 
373	-6.51887422634449E-03 
374	-2.05311622516651E-02 
375	 4.23149780639469E-02 
376	 4.07772323803825E-02 
377	 4.20596696391317E-02 
378	 6.09442344267458E-02 
379	 3.78510099792808E-02 
380	 1.68361102770027E-02 
381	 2.79771344918089E-02 
382	 6.65225550135279E-02 
383	 5.92312194682187E-02 
384	 5.11035222808249E-02 
385	 4.93536312768368E-02 
386	 4.50500479799301E-02 
387	 4.19844213630675E-02 
388	 0.032015589316326 
389	 0.022866835939832 
390	 3.85260661067668E-02 
391	 4.37630216772034E-02 
392	 0.035922815299778 
393	 2.79074113487493E-02 
394	 0.058505292129448 
395	 6.35309696465021E-02 
396	 4.70770481363094E-02 
397	 3.98045645770367E-02 
398	 4.54291666620563E-02 
399	 5.21776149480031E-02 
400	 5.70356428276418E-02 
401	 6.67723457993859E-02 
402	 6.19098535267115E-02 
403	 5.02927490389621E-02 
404	 4.31276683426374E-02 
405	 0.04773682652322 
406	 5.24349387217574E-02 
407	 5.53765297126394E-02 
408	 5.78666632539509E-02 
409	 5.03426305191068E-02 
410	 5.21660960919649E-02 
411	 6.03543343680804E-02 
412	 0.047285532419211 
413	 4.41979112322143E-02 
414	 4.82583367065744E-02 
415	 5.12654958252286E-02 
416	 4.89520580607309E-02 
417	 5.36432030569974E-02 
418	 0.059162857500547 
419	 5.44779425349198E-02 
420	 5.48399188776713E-02 
421	 5.91724272836011E-02 
422	 6.23671702850624E-02 
423	 5.64417241829122E-02 
424	 0.053616529801631 
425	 5.52309582626606E-02 
426	 5.90598808956494E-02 
427	 6.07078617017116E-02 
428	 0.060990958043357 
429	 6.14293896488351E-02 
430	 6.35817274471147E-02 
431	 6.59175023257837E-02 
432	 6.87412763945479E-02 
433	 7.01791465744528E-02 
434	 6.47164454097618E-02 
435	 6.30698849637129E-02 
436	 6.43515616127224E-02 
437	 6.55209197355887E-02 
438	 6.87066378298247E-02 
439	 0.069077893848776 
440	 6.73496252159331E-02 
441	 6.78661133066294E-02 
442	 6.94426218974841E-02 
443	 6.95768402343967E-02 
444	 6.83899683886724E-02 
445	 0.071305815348535 
446	 7.25140724968155E-02 
447	 7.22427731949951E-02 
448	 7.27656503276057E-02 
449	 0.076518485062962 
450	 7.47268598837221E-02 
451	 6.97745926557652E-02 
452	 7.38908058277721E-02 
453	 7.41803896526823E-02 
454	 7.41623403964796E-02 
455	 7.63401855126273E-02 
456	 7.24167333093712E-02 
457	 7.23061298243887E-02 
458	 7.50896892029528E-02 
459	 0.075725378911543 
460	 0.077439482807063 
461	 7.61288991981585E-02 
462	 7.28833296233617E-02 
463	 7.57459379686839E-02 
464	 7.84249397811867E-02 
465	 7.81557784576926E-02 
466	 7.50992714294858E-02 
467	 7.56850864827105E-02 
468	 0.077490548065987 
469	 7.85022829770299E-02 
470	 0.07730005786625 
471	 7.53149862242797E-02 
472	 7.54240399840247E-02 
473	 7.80314302949263E-02 
474	 7.92733834091139E-02 
475	 7.63711878927832E-02 
476	 7.37111905121706E-02 
477	 7.60048723045692E-02 
478	 7.75835155210429E-02 
479	 7.58076789751537E-02 
480	 7.33204071227563E-02 
481	 7.68681602398254E-02 
482	 7.83575261855203E-02 
483	 7.81721485563711E-02 
484	 7.79830522158499E-02 
485	 7.86804928214409E-02 
486	 7.78596337565305E-02 
487	 0.076090989910403 
488	 7.54385687260912E-02 
489	 7.77586460605717E-02 
490	 7.83815876937144E-02 
491	 7.63386136899229E-02 
492	 7.61701027937596E-02 
493	 7.70632682537052E-02 
494	 7.87412353894321E-02 
495	 8.05699762562435E-02 
496	 0.080508100965088 
497	 8.12265140011703E-02 
498	 8.22248630851343E-02 
499	 8.10236654757379E-02 
500	 8.02952062867165E-02 
501	 8.14005480274953E-02 
502	 8.40465873248435E-02 
503	 8.52240580084148E-02 
504	 8.59642636146106E-02 
505	 8.62204183259157E-02 
506	 8.61174229039666E-02 
507	 8.83936742008924E-02 
508	 9.07298283716783E-02 
509	 9.20437187686593E-02 
510	 9.29771299037352E-02 
511	 9.51362180276312E-02 
512	 9.68011780726664E-02 
513	 0.097053857503788 
514	 9.97010546017758E-02 
515	 0.102621664389653 
516	 0.104926307020874 
517	 0.106595419438932 
518	 0.108578181197363 
519	 0.110377852347514 
520	 0.111920793071234 
521	 0.114087100464733 
522	 0.117082684766624 
523	 0.120356069328525 
524	 0.123182870048257 
525	 0.125259353498956 
526	 0.128013401464241 
527	 0.131640149042374 
528	 0.135102774773844 
529	 0.137084264058512 
530	 0.138578205559615 
531	 0.14060385171255 
532	 0.142996096748854 
533	 0.145217538777988 
534	 0.147359263053746 
535	 0.149717897407927 
536	 0.151078670455669 
537	 0.152772006420982 
538	 0.155010796137973 
539	 0.155925848379802 
540	 0.157461629620563 
541	 0.159210983720908 
542	 0.160412724441715 
543	 0.16185200442656 
544	 0.163465077081936 
545	 0.1649601190015 
546	 0.165946247253688 
547	 0.16723608017895 
548	 0.167969135537533 
549	 0.167780987266655 
550	 0.168232417164627 
551	 0.168616941059568 
552	 0.169066587919656 
553	 0.169881193152567 
554	 0.169686550141681 
555	 0.169800671409117 
556	 0.170297125120289 
557	 0.169124574706361 
558	 0.167612649844912 
559	 0.166623892412702 
560	 0.166483650956085 
561	 0.166044171493848 
562	 0.165041832291818 
563	 0.163638332383546 
564	 0.162324496702266 
565	 0.161285290311442 
566	 0.160206260015536 
567	 0.158853800286458 
568	 0.157361261067495 
569	 0.156210376421544 
570	 0.1552786679745 
571	 0.154061401528558 
572	 0.151538495131721 
573	 0.149898159074999 
574	 0.149433888709054 
575	 0.147464937064171 
576	 0.145756030674902 
577	 0.144575030763676 
578	 0.143693205847392 
579	 0.142554236772376 
580	 0.14144259320444 
581	 0.140669793423639 
582	 0.140426056038594 
583	 0.139101556132226 
584	 0.13746134683061 
585	 0.136318913547715 
586	 0.135788522391405 
587	 0.135256214781722 
588	 0.134785929257881 
589	 0.134552296241924 
590	 0.13346202520331 
591	 0.132672485505967 
592	 0.132658214711764 
593	 0.13284530963567 
594	 0.132788519637602 
595	 0.132181273756863 
596	 0.131048386586773 
597	 0.130099108075983 
598	 0.130146778285303 
599	 0.13064785140695 
600	 0.130257896397127 
601	 0.130240124307502 
602	 0.129851372992194 
603	 0.128794181805717 
604	 0.128142544268273 
605	 0.127823152285177 
606	 0.1273576717554 
607	 0.126293475392451 
608	 0.125419605803225 
609	 0.124732191369322 
610	 0.123933177792051 
611	 0.122493237871453 
612	 0.121578263881146 
613	 0.120690975804811 
614	 0.119432177352773 
615	 0.118932097859216 
616	 0.11852491951435 
617	 0.117891775550992 
618	 0.116980124064158 
619	 0.116145346189359 
620	 0.115530416349686 
621	 0.115224041249991 
622	 0.115347930402308 
623	 0.114819577517591 
624	 0.11384506892856 
625	 0.113122882705991 
626	 0.11338424178081 
627	 0.113169723199664 
628	 0.112732400505006 
629	 0.113831203242387 
630	 0.113489594108667 
631	 0.112658593374379 
632	 0.112462535393193 
633	 0.11251057387224 
634	 0.111937065182557 
635	 0.111245392105776 
636	 0.111310420979965 
637	 0.110212482424026 
638	 0.10915459554898 
639	 0.108468717093905 
640	 0.106878096142078 
641	 0.105983636020559 
642	 0.105259044768443 
643	 0.104034450207192 
644	 0.103519282524686 
645	 0.102023599715819 
646	 0.100004219338009 
647	 9.93228075400989E-02 
648	 9.80894055183342E-02 
649	 9.72693644968573E-02 
650	 9.71791543936941E-02 
651	 9.59310186821675E-02 
652	 9.55762139296554E-02 
653	 9.56196634898242E-02 
654	 9.49715958231393E-02 
655	 9.47748455080077E-02 
656	 9.39633902619809E-02 
657	 9.24808947745803E-02 
658	 9.13951749826966E-02 
659	 9.05717834390667E-02 
660	 8.96192363724824E-02 
661	 8.83405391778922E-02 
662	 8.72251305456302E-02 
663	 8.63426222335383E-02 
664	 8.57615249834302E-02 
665	 8.54011075096466E-02 
666	 8.42797974572541E-02 
667	 8.31853896559982E-02 
668	 8.26118653670364E-02 
669	 8.24056412840468E-02 
670	 0.082227010050468 
671	 8.16577273090936E-02 
672	 8.07047274902577E-02 
673	 0.080812427816655 
674	 8.12089006714326E-02 
675	 8.15385886899394E-02 
676	 8.17411474364313E-02 
677	 8.14502470624425E-02 
678	 8.17550313367639E-02 
679	 8.27007439326821E-02 
680	 8.20913581985035E-02 
681	 8.23795807361306E-02 
682	 8.36426412618889E-02 
683	 8.51823346538888E-02 
684	 8.66416833900637E-02 
685	 8.84754404851439E-02 
686	 9.06398269761355E-02 
687	 9.27149528613907E-02 
688	 9.57986593201065E-02 
689	 9.95413472417968E-02 
690	 0.103819785014588 
691	 0.109613084385235 
692	 0.115999619498516 
693	 0.123109935969079 
694	 0.131187082278736 
695	 0.138790710047959 
696	 0.147767953547521 
697	 0.158417004317677 
698	 0.169253426265068 
699	 0.180672722454652 
700	 0.192240950067851 
701	 0.203661967616632 
702	 0.215324333951382 
703	 0.227206764435034 
704	 0.238980305287964 
705	 0.250404402308517 
706	 0.262653017889399 
707	 0.274280476726437 
708	 0.284972168010136 
709	 0.295954304755691 
710	 0.306975199888231 
711	 0.317495844440477 
712	 0.327304312031489 
713	 0.337191682502932 
714	 0.347013866504254 
715	 0.356717761824105 
716	 0.366157635667545 
717	 0.374468910196511 
718	 0.382866947098567 
719	 0.39136207201107 
720	 0.398358155991139 
721	 0.406458169339515 
722	 0.414229766782554 
723	 0.420340096183381 
724	 0.426508688378936 
725	 0.432686498914389 
726	 0.438416728039098 
727	 0.443253991814492 
728	 0.448752257016862 
729	 0.453474136175778 
730	 0.457160004637867 
731	 0.461292144393177 
732	 0.465572757180477 
733	 0.469351299680186 
734	 0.472296209956771 
735	 0.475312794610051 
736	 0.477598186156704 
737	 0.479759922889242 
738	 0.482729076954295 
739	 0.484713978372297 
740	 0.486652867167758 
741	 0.48852609907429 
742	 0.489053113026986 
743	 0.490676582430689 
744	 0.492480045662889 
745	 0.4934966784097 
746	 0.49459263009871 
747	 0.495892205759337 
748	 0.497122062449477 
749	 0.497844968474659 
750	 0.497863380737778 
751	 0.498274480132162 
752	 0.49922871042426 
753	 0.499839830947769 
754	 0.499991106133523 
755	 0.500205507291609 
756	 0.500717045652688 
757	 0.500754961178734 
758	 0.501280833615569 
759	 0.502066312624452 
760	 0.502434281355656 
761	 0.501784582098228 
762	 0.501732720132321 
763	 0.502313700370569 
764	 0.502265387394333 
765	 0.502394767527092 
766	 0.502365605868651 
767	 0.502121503349946 
768	 0.502361002729857 
769	 0.502669610725339 
770	 0.502805443836136 
771	 0.502703338810837 
772	 0.502748956140267 
773	 0.502784626656892 
774	 0.502718232223309 
775	 0.502548235544837 
776	 0.502611469339028 
777	 0.502588532120406 
778	 0.502415871851048 
779	 0.502430320792002 
780	 0.50232162042287 
781	 0.502408977716002 
782	 0.502763566720669 
783	 0.502393722652655 
784	 0.50246492544514 
785	 0.502933707828081 
786	 0.503233224833403 
787	 0.502929294504344 
788	 0.502920658668749 
789	 0.503270689167078 
790	 0.503306749608932 
791	 0.503334687972382 
792	 0.503550663465547 
793	 0.503857227575767 
794	 0.503698117837451 
795	 0.503807487161691 
796	 0.5039208029602 
797	 0.503709126418685 
798	 0.503523065867806 
799	 0.503769611463288 
800	 0.504053928391012 
801	 0.503794254159863 
802	 0.504117841673622 
803	 0.504208467586944 
804	 0.503960827500761 
805	 0.504060805389652 
806	 0.50391072485859 
807	 0.503916014918182 
808	 0.504141757457626 
809	 0.503718929350734 
810	 0.503780243848576 
811	 0.504029970478501 
812	 0.503963507598353 
813	 0.503854196874619 
814	 0.504177524928434 
815	 0.504436764627141 
816	 0.503956674609256 
817	 0.504399231961605 
818	 0.504774389071349 
819	 0.504660666123455 
820	 0.504400944830694 
821	 0.504194333551007 
822	 0.504325128166004 
823	 0.5046830819273 
824	 0.504528988668958 
825	 0.504425574217228 
826	 0.504152272594044 
827	 0.503749173984584 
828	 0.504766778287359 
829	 0.504720835132002 
830	 0.504133706832358 
831	 0.504417690522467 
832	 0.504100897756248 
833	 0.50362778436567 
834	 0.503359542377039 
835	 0.503466673739375 
836	 0.503627842167873 
837	 0.50440775427979 
838	 0.505293004817398 
839	 0.504459874046148 
840	 0.504123805152318 
841	 0.504159798700678 
842	 0.504150961622838 
843	 0.504137093724384 
844	 0.504126359950091 
845	 0.503960689978371 
846	 0.503678602886111 
847	 0.50417606486787 
848	 0.504373891693662 
849	 0.504303242232243 
850	 0.504409474360744 
851	 0.504023402234538 
852	 0.504128116283305 
853	 0.504568765468889 
854	 0.504378701926974 
855	 0.504455048930146 
856	 0.504299199599009 
857	 0.503965775775596 
858	 0.504289127794412 
859	 0.504653624499713 
860	 0.504694134924454 
861	 0.504498361181835 
862	 0.504862816359714 
863	 0.504970577055582 
864	 0.504921050199047 
865	 0.504874800693751 
866	 0.50437157189204 
867	 0.504290214916671 
868	 0.504679462506423 
869	 0.50505534942338 
870	 0.504238153674315 
871	 0.503920048228633 
872	 0.504440613512233 
873	 0.505125877254824 
874	 0.504747083515897 
875	 0.5047825694972 
876	 0.505332530310067 
877	 0.50532113997441 
878	 0.505263089358443 
879	 0.504940590402642 
880	 0.504275347045707 
881	 0.503520590370818 
882	 0.504412623448574 
883	 0.504787059959703 
884	 0.504108989121795 
885	 0.505301763017391 
886	 0.505366414390787 
887	 0.505277539845845 
888	 0.505717892206072 
889	 0.504766484656827 
890	 0.504705888975133 
891	 0.505224608731994 
892	 0.505366398022593 
893	 0.504634741823595 
894	 0.504358990856508 
895	 0.504484101312259 
896	 0.504555117675372 
897	 0.504861371681511 
898	 0.504842005826817 
899	 0.504611098460834 
900	 0.504475458751404 
901	 0.503859234235547 
902	 0.503429307219894 
903	 0.503736490085761 
904	 0.504872322514725 
905	 0.505268920280391 
906	 0.504918389548165 
907	 0.504585482459388 
908	 0.505156855882505 
909	 0.504639167966701 
910	 0.503911765468815 
911	 0.503744910171002 
912	 0.504277182424609 
913	 0.50374172319097 
914	 0.50317776269103 
915	 0.50348526355112 
916	 0.504667558101592 
917	 0.503392575067043 
918	 0.502638825094557 
919	 0.503519194602158 
920	 0.503496497573109 
921	 0.503647090683617 
922	 0.503524484785122 
923	 0.502884667526649 
924	 0.502159276122811 
925	 0.501805297441567 
926	 0.501522406784856 
927	 0.501314480101661 
928	 0.501931449556569 
929	 0.501964590205146 
930	 0.50198636497432 
931	 0.502428879992374 
932	 0.502586391152037 
933	 0.501961061693284 
934	 0.502066564857969 
935	 0.502993690595045 
936	 0.501046166635169 
937	 0.500201097441652 
938	 0.500783379457529 
939	 0.501504603073946 
940	 0.499928093319562 
941	 0.500519970295646 
942	 0.499875380387495 
943	 0.496625758135452 
944	 0.498787483547996 
945	 0.498467270090681 
946	 0.497613452917508 
947	 0.498582092098471 
948	 0.498168608270528 
949	 0.496536555304263 
950	 0.495203576909776 
951	 0.495207156830509 
952	 0.495500629225643 
953	 0.495400376623631 
954	 0.494768806500113 
955	 0.493636199547437 
956	 0.491890258706938 
957	 0.490277688271241 
958	 0.489017964320612 
959	 0.488248775926281 
960	 0.488245317163045 
961	 0.489936155430413 
962	 0.489666785899591 
963	 0.486589000511321 
964	 0.487479778137195 
965	 0.488001525465018 
966	 0.488216890999763 
967	 0.488446647501792 
968	 0.487630088490284 
969	 0.488609628020543 
970	 0.488216198190423 
971	 0.486029506612891 
972	 0.48783307903845 
973	 0.486969115975409 
974	 0.486127572323851 
975	 0.487193912247322 
976	 0.488000256667294 
977	 0.486846456532406 
978	 0.487400869564187 
979	 0.488934268120628 
980	 0.485302840738028 
981	 0.487092396913118 
982	 0.487322120789886 
983	 0.484716238670094 
984	 0.486058350064908 
985	 0.48783285523648 
986	 0.487224680555129 
987	 0.485555808514636 
988	 0.4866505087355 
989	 0.485799969045067 
990	 0.484532650052039 
991	 0.482783155699316 
992	 0.480842769093204 
993	 0.489993774053573 
994	 0.493557841507016 
995	 0.490074667274588 
996	 0.48739175197456 
997	 0.48564919991091 
998	 0.488127037651074 
999	 0.492679738826043 
1000	 0.494856633072902 
1001	 0.489765456399315 
1002	 0.491204114496674 
1003	 0.492885676581155 
1004	 0.493665321258638 
1005	 0.49343511714491 
1006	 0.493602344166575 
1007	 0.493734048547944 
1008	 0.493839392581794 
1009	 0.494453528047427 
1010	 0.494594590108291 
1011	 0.494211357548943 
1012	 0.494404887600518 
1013	 0.494825953830753 
1014	 0.495239280819988 
1015	 0.495302113033156 
1016	 0.495681330034751 
1017	 0.495576976898071 
1018	 0.495246774435636 
1019	 0.49609327878694 
1020	 0.497052636074584 
1021	 0.497667982268049 
1022	 0.498137901035793 
1023	 0.497603514406007 
1024	 0.497285197798839 
1025	 0.496674757239219 
1026	 0.496076258813227 
1027	 0.495895304578087 
1028	 0.49696546495426 
1029	 0.497559152818692 
1030	 0.498329523169226 
1031	 0.499368798343218 
1032	 0.499184309746525 
1033	 0.499411893063662 
1034	 0.499504054322971 
1035	 0.499496033555906 
1036	 0.499271025050329 
1037	 0.499576308976446 
1038	 0.499839458329118 
1039	 0.500654702904543 
1040	 0.501516979564444 
1041	 0.501673651555658 
1042	 0.501964423064826 
1043	 0.501712929875873 
1044	 0.501233261838154 
1045	 0.50145899595501 
1046	 0.501884190150076 
1047	 0.50260142136202 
1048	 0.502974480667402 
1049	 0.50351850351421 
1050	 0.503291245427503 
1051	 0.502272921304447 
1052	 0.501892006262325 
1053	 0.50127952877619 
1054	 0.50195461658456 
1055	 0.503063496076369 
1056	 0.503040532760919 
1057	 0.502479889710826 
1058	 0.502460286931867 
1059	 0.502465766354756 
1060	 0.502676925900091 
1061	 0.502780653389541 
1062	 0.502886282287741 
1063	 0.502812069803323 
1064	 0.50241559127928 
1065	 0.502484489289772 
1066	 0.503238395610466 
1067	 0.504739670151255 
1068	 0.504799361047795 
1069	 0.505223808483347 
1070	 0.504450394360772 
1071	 0.503064053039829 
1072	 0.502886806455677 
1073	 0.50361487858671 
1074	 0.503585151733036 
1075	 0.50358061463343 
1076	 0.503854277290568 
1077	 0.504062564191915 
1078	 0.504441618260938 
1079	 0.50427492804441 
1080	 0.504963928990904 
1081	 0.505650333600841 
1082	 0.505503146354151 
1083	 0.506145904023801 
1084	 0.50681697079842 
1085	 0.507425310227334 
1086	 0.508106682448948 
1087	 0.508313918026095 
1088	 0.508561872596297 
1089	 0.508485069247976 
1090	 0.50762717451316 
1091	 0.507347467301302 
1092	 0.507515983259807 
1093	 0.507022332307202 
1094	 0.506438388725406 
1095	 0.505781635612792 
1096	 0.505548783636 
1097	 0.505653068406793 
1098	 0.505837949206033 
1099	 0.506919556674097 
1100	 0.507028811593729 
1101	 0.506722072340214 
1102	 0.506485700863837 
1103	 0.505878462440804 
1104	 0.505460342705998 
1105	 0.504991103910683 
1106	 0.504551006619648 
1107	 0.504581861217816 
1108	 0.504765932440404 
1109	 0.505087249406662 
1110	 0.505333912265107 
1111	 0.505146935988318 
1112	 0.504455173620858 
1113	 0.503985379707402 
1114	 0.503024928906639 
1115	 0.502866872898637 
1116	 0.503408133469901 
1117	 0.503490280361975 
1118	 0.503834375936286 
1119	 0.503868334620224 
1120	 0.503571953485401 
1121	 0.503015413124448 
1122	 0.5026167302932 
1123	 0.502425347071119 
1124	 0.502115698271937 
1125	 0.501826729341957 
1126	 0.501346654441137 
1127	 0.500847086289714 
1128	 0.500171859180925 
1129	 0.499115145324521 
1130	 0.498381672839197 
1131	 0.49796034034848 
1132	 0.497176638064864 
1133	 0.496390212318101 
1134	 0.495427928012295 
1135	 0.494352680209219 
1136	 0.492786616518273 
1137	 0.491526832343622 
1138	 0.490434010758806 
1139	 0.489091646003534 
1140	 0.487645940717985 
1141	 0.486198330598248 
1142	 0.484753396121948 
1143	 0.483111819474318 
1144	 0.48111593104018 
1145	 0.479511825920685 
1146	 0.478027165632638 
1147	 0.476432329437737 
1148	 0.474922448981486 
1149	 0.473662351170183 
1150	 0.472126303863271 
1151	 0.470231603979348 
1152	 0.468779816523404 
1153	 0.467494927577886 
1154	 0.466234193724179 
1155	 0.465110579006194 
1156	 0.464011907623142 
1157	 0.462880389872986 
1158	 0.461912945726516 
1159	 0.460887673219325 
1160	 0.460278820848607 
1161	 0.460129766270475 
1162	 0.459793019414793 
1163	 0.459623126718296 
1164	 0.459625132651313 
1165	 0.459131487594233 
1166	 0.458290278872842 
1167	 0.457563481843673 
1168	 0.456494646284347 
1169	 0.45586862053069 
1170	 0.455424927111677 
1171	 0.454994959911998 
1172	 0.454932541532581 
1173	 0.454541227113856 
1174	 0.453878906947384 
1175	 0.453411663552258 
1176	 0.452679789095266 
1177	 0.45235696299555 
1178	 0.45226544690531 
1179	 0.452680999354052 
1180	 0.452371986797411 
1181	 0.452041921343804 
1182	 0.451588645175425 
1183	 0.450504177747825 
1184	 0.450001591146202 
1185	 0.449770580810226 
1186	 0.44957403177764 
1187	 0.449671358705619 
1188	 0.449495670319198 
1189	 0.449212510219348 
1190	 0.44906260810319 
1191	 0.44875372522349 
1192	 0.448593702874996 
1193	 0.448546192542934 
1194	 0.448773801500846 
1195	 0.448745497346096 
1196	 0.448636961846296 
1197	 0.448623372179394 
1198	 0.448635204335923 
1199	 0.448571246577439 
1200	 0.44850072298434 
1201	 0.448454750756334 
1202	 0.448272974470211 
1203	 0.448246545829354 
1204	 0.448337712690859 
1205	 0.448458502053927 
1206	 0.448643350038484 
1207	 0.448846309919775 
1208	 0.44932416669036 
1209	 0.449403169196725 
1210	 0.449578794791686 
1211	 0.449590490427928 
1212	 0.449985915374694 
1213	 0.450615161641194 
1214	 0.450947333461878 
1215	 0.45130974479372 
1216	 0.451773602821731 
1217	 0.451818209112911 
1218	 0.452400536388081 
1219	 0.453885107266503 
1220	 0.454586869521667 
1221	 0.455153516957087 
1222	 0.455544789170364 
1223	 0.455513892855499 
1224	 0.455161096417263 
1225	 0.45539063377281 
1226	 0.455763372478166 
1227	 0.456213904242073 
1228	 0.457104130246785 
1229	 0.457535017383633 
1230	 0.457744737054368 
1231	 0.458168323280518 
1232	 0.458500783812642 
1233	 0.458881012327976 
1234	 0.45947445607982 
1235	 0.459910113322661 
1236	 0.460311687724027 
1237	 0.460561106312712 
1238	 0.460620754589284 
1239	 0.460760275671124 
1240	 0.460991892423161 
1241	 0.461375258871841 
1242	 0.461670119112327 
1243	 0.462133674394424 
1244	 0.46258748335696 
1245	 0.462965196816176 
1246	 0.463249720104251 
1247	 0.463716564571323 
1248	 0.463972096906706 
1249	 0.463942259019933 
1250	 0.464029855712129 
1251	 0.46408061730501 
1252	 0.464195857045103 
1253	 0.464288487193753 
1254	 0.464426025983758 
1255	 0.464654485485126 
1256	 0.464880460768224 
1257	 0.465280037355487 
1258	 0.465549863976448 
1259	 0.465766064074058 
1260	 0.466132321401849 
1261	 0.466116545121723 
1262	 0.465558567600348 
1263	 0.465660979613027 
1264	 0.465853229483262 
1265	 0.466167870718626 
1266	 0.467273258909344 
1267	 0.467564013590314 
1268	 0.467154762384612 
1269	 0.467224925606398 
1270	 0.467332751957182 
1271	 0.467246059180015 
1272	 0.467225430880218 
1273	 0.46746427751933 
1274	 0.466973894074844 
1275	 0.466640208042035 
1276	 0.466473401235327 
1277	 0.466427876662396 
1278	 0.466398172754009 
1279	 0.466453380440753 
1280	 0.466557925639336 
1281	 0.466965849323595 
1282	 0.466852114068264 
1283	 0.466508453390088 
1284	 0.466244411433599 
1285	 0.465361030827699 
1286	 0.465075355612705 
1287	 0.465448532100321 
1288	 0.465472269564863 
1289	 0.465556456858765 
1290	 0.465669993161793 
1291	 0.46546262778222 
1292	 0.464752665552396 
1293	 0.46415694034574 
1294	 0.463836681130773 
1295	 0.463368145680852 
1296	 0.463017646524268 
1297	 0.462448371175658 
1298	 0.461690168384474 
1299	 0.461062772470125 
1300	 0.4603475994965 
1301	 0.459686114140075 
1302	 0.458987054820381 
1303	 0.45841640672199 
1304	 0.458118049407334 
1305	 0.457553160846478 
1306	 0.456714654850569 
1307	 0.456426820116532 
1308	 0.455915431714751 
1309	 0.455151680303218 
1310	 0.45468750524955 
1311	 0.454013828770185 
1312	 0.453056306195799 
1313	 0.452045241700445 
1314	 0.451132794711159 
1315	 0.450379661673426 
1316	 0.44926640141706 
1317	 0.44803935613141 
1318	 0.44679795877148 
1319	 0.445164931279904 
1320	 0.443762137018426 
1321	 0.442622359996338 
1322	 0.44126865030755 
1323	 0.439827774373767 
1324	 0.438465693599943 
1325	 0.437085332872989 
1326	 0.435597904651438 
1327	 0.43422912751612 
1328	 0.432678139510185 
1329	 0.431171017150831 
1330	 0.42959702416136 
1331	 0.427857436946589 
1332	 0.42640933531751 
1333	 0.424903158641224 
1334	 0.423436515239824 
1335	 0.421811851501574 
1336	 0.42021113287424 
1337	 0.418481665631243 
1338	 0.416313856102944 
1339	 0.414724201074613 
1340	 0.413530286130794 
1341	 0.412030108763904 
1342	 0.410699687956937 
1343	 0.40930161422446 
1344	 0.407723208090445 
1345	 0.40605976561028 
1346	 0.404500165665298 
1347	 0.402760045806908 
1348	 0.400702213977978 
1349	 0.398865366790258 
1350	 0.39732890058965 
1351	 0.395726799917894 
1352	 0.39419163601698 
1353	 0.39272667745549 
1354	 0.391434899573569 
1355	 0.390317904046321 
1356	 0.388931642567639 
1357	 0.387632140798986 
1358	 0.386258789229382 
1359	 0.384692660103942 
1360	 0.3830870317134 
1361	 0.381654600138452 
1362	 0.379995228126923 
1363	 0.378128544600102 
1364	 0.376069703546886 
1365	 0.374097975158827 
1366	 0.371987358455193 
1367	 0.369751387885318 
1368	 0.367788622962032 
1369	 0.366012051178632 
1370	 0.363811198704136 
1371	 0.361406791610094 
1372	 0.358983591351657 
1373	 0.356504978453564 
1374	 0.353796925313853 
1375	 0.351178054365554 
1376	 0.348868110391205 
1377	 0.345926066770479 
1378	 0.342779405075983 
1379	 0.339213230824381 
1380	 0.335148555994628 
1381	 0.330836309663715 
1382	 0.326200946068925 
1383	 0.321404679144635 
1384	 0.316437059085304 
1385	 0.311033902188867 
1386	 0.305392152392888 
1387	 0.299555091292031 
1388	 0.294037919942214 
1389	 0.288206395986567 
1390	 0.282209090950126 
1391	 0.276493845489385 
1392	 0.270467416118845 
1393	 0.264702670418075 
1394	 0.259418107357597 
1395	 0.253832153947808 
1396	 0.247952079472935 
1397	 0.241610938376362 
1398	 0.235587932778854 
1399	 0.22916788591389 
1400	 0.223642191765277 
1401	 0.218779443955219 
1402	 0.213937666714836 
1403	 0.20952549107719 
1404	 0.204983379342363 
1405	 0.200292613678665 
1406	 0.195931416040496 
1407	 0.191676838669141 
1408	 0.187887309096968 
1409	 0.184147526144947 
1410	 0.180700935324538 
1411	 0.177778322352001 
1412	 0.174891922329271 
1413	 0.172201285757508 
1414	 0.169831442212731 
1415	 0.167122884443905 
1416	 0.164702917833913 
1417	 0.162522361913266 
1418	 0.160501358448647 
1419	 0.158669702514 
1420	 0.157139370163502 
1421	 0.155432606561492 
1422	 0.153633971936024 
1423	 0.152186527068509 
1424	 0.15093164188643 
1425	 0.149777812360116 
1426	 0.149002336856066 
1427	 0.148020824162602 
1428	 0.146828838504871 
1429	 0.145824093999128 
1430	 0.144879582078382 
1431	 0.144069429053225 
1432	 0.14334877906094 
1433	 0.142856677976317 
1434	 0.142429181419881 
1435	 0.141811934568461 
1436	 0.141167732135539 
1437	 0.140551334176112 
1438	 0.140115174316187 
1439	 0.139746830320867 
1440	 0.139231431319742 
1441	 0.138917743673156 
1442	 0.138338409741064 
1443	 0.137872252289943 
1444	 0.137680551216462 
1445	 0.137732661495505 
1446	 0.137752236569642 
1447	 0.138043384943835 
1448	 0.138006515056943 
1449	 0.137916281469724 
1450	 0.137841405904252 
1451	 0.137464745951138 
1452	 0.137430178633552 
1453	 0.137774695683014 
1454	 0.137728231334141 
1455	 0.137676473570605 
1456	 0.137486759316556 
1457	 0.136861559164809 
1458	 0.136514348534918 
1459	 0.136567969224719 
1460	 0.136954291322438 
1461	 0.137585690504649 
1462	 0.137985747291705 
1463	 0.138296307200013 
1464	 0.138468320127232 
1465	 0.138713705910531 
1466	 0.139226515679191 
1467	 0.139749667474273 
1468	 0.140281329391635 
1469	 0.140891947452388 
1470	 0.141271087952672 
1471	 0.141784079190042 
1472	 0.142264616052951 
1473	 0.142946761604714 
1474	 0.143718522419794 
1475	 0.144649123401212 
1476	 0.145781944528313 
1477	 0.146698487832545 
1478	 0.147846452015703 
1479	 0.148627400379473 
1480	 0.148989933593714 
1481	 0.149715212866164 
1482	 0.150365394212026 
1483	 0.151043840374449 
1484	 0.151854064600456 
1485	 0.15281997548141 
1486	 0.153782990427968 
1487	 0.154952649987421 
1488	 0.156368097139698 
1489	 0.157185882132327 
1490	 0.157891548319859 
1491	 0.158546824850225 
1492	 0.159432384146897 
1493	 0.160935597100426 
1494	 0.162242484110141 
1495	 0.16362334460121 
1496	 0.165011365935574 
1497	 0.165818453284286 
1498	 0.166607235247081 
1499	 0.167767285755742 
1500	 0.16857883873106 
1501	 0.169199100515069 
1502	 0.169952034892036 
1503	 0.170762170784904 
1504	 0.171434835892173 
1505	 0.171923970493188 
1506	 0.172753169605788 
1507	 0.173581319753241 
1508	 0.174742026766992 
1509	 0.176410603125528 
1510	 0.177770602888057 
1511	 0.179300334199383 
1512	 0.180491220653248 
1513	 0.181219072211509 
1514	 0.182361451066024 
1515	 0.183694714850427 
1516	 0.18482770871625 
1517	 0.186090374872619 
1518	 0.187118225003557 
1519	 0.18785622345436 
1520	 0.188587782643796 
1521	 0.189428622643556 
1522	 0.190274561193526 
1523	 0.191328043818914 
1524	 0.192505849203252 
1525	 0.193643651802133 
1526	 0.194995527114854 
1527	 0.196241751040339 
1528	 0.197352344365354 
1529	 0.198365653523751 
1530	 0.199481013305183 
1531	 0.200637287064859 
1532	 0.201296630414013 
1533	 0.202002681328819 
1534	 0.202870939407381 
1535	 0.203782750925176 
1536	 0.204810104800031 
1537	 0.205666560077816 
1538	 0.206551100403767 
1539	 0.207299074896239 
1540	 0.207739811478413 
1541	 0.208576869161881 
1542	 0.209594357882534 
1543	 0.210610612925113 
1544	 0.211743179807841 
1545	 0.21285572606857 
1546	 0.214045828506887 
1547	 0.215089077820179 
1548	 0.216238887991375 
1549	 0.217138157356781 
1550	 0.217666013792978 
1551	 0.218500746956243 
1552	 0.21945541156644 
1553	 0.220229147466627 
1554	 0.220922011455601 
1555	 0.221745870188155 
1556	 0.222450950772151 
1557	 0.223284679816832 
1558	 0.224380588831988 
1559	 0.225884882613077 
1560	 0.226708832587374 
1561	 0.227377976636443 
1562	 0.228422188623215 
1563	 0.2289013917835 
1564	 0.229436092924672 
1565	 0.230261017451515 
1566	 0.23049247032812 
1567	 0.230762419877542 
1568	 0.231682338959772 
1569	 0.232540113833898 
1570	 0.233580609651987 
1571	 0.234774250966752 
1572	 0.235360449941768 
1573	 0.235905034811821 
1574	 0.236255968947895 
1575	 0.236306542316418 
1576	 0.236753987864731 
1577	 0.237330928242069 
1578	 0.237941642022141 
1579	 0.238803734652895 
1580	 0.239602132381237 
1581	 0.240426170033142 
1582	 0.241205133934446 
1583	 0.242028599697583 
1584	 0.242645991885446 
1585	 0.24295596510884 
1586	 0.243736978962616 
1587	 0.24471380597715 
1588	 0.245642094466274 
1589	 0.247046496590222 
1590	 0.247825975380701 
1591	 0.24807464944389 
1592	 0.24854139834496 
1593	 0.24865430685537 
1594	 0.249344948794846 
1595	 0.250567887545749 
1596	 0.251499994508801 
1597	 0.252667778105167 
1598	 0.253481574930945 
1599	 0.253823583317034 
1600	 0.254448271780103 
1601	 0.255251810229675 
1602	 0.25588839733 
1603	 0.256659677536183 
1604	 0.257084002383503 
1605	 0.256794546556425 
1606	 0.257140667023166 
1607	 0.257844066262267 
1608	 0.25834174761558 
1609	 0.259000996783599 
1610	 0.259936879093345 
1611	 0.26015131638564 
1612	 0.260343489601369 
1613	 0.260783733230082 
1614	 0.260998816497307 
1615	 0.261646599316974 
1616	 0.262339907337185 
1617	 0.263067640265713 
1618	 0.264089857728899 
1619	 0.265067178175791 
1620	 0.265882675992115 
1621	 0.266769850804781 
1622	 0.267296661442942 
1623	 0.267366835077937 
1624	 0.267511271056725 
1625	 0.267767212588752 
1626	 0.268061059864844 
1627	 0.268463428575712 
1628	 0.269090370783872 
1629	 0.269738756768559 
1630	 0.270465604558466 
1631	 0.271080431160812 
1632	 0.271864794410501 
1633	 0.272204160867294 
1634	 0.272070708254785 
1635	 0.272410772485374 
1636	 0.272791681017606 
1637	 0.273264185153941 
1638	 0.274031081656155 
1639	 0.274650852943762 
1640	 0.27530922178567 
1641	 0.275664607660137 
1642	 0.276002063708038 
1643	 0.276053826845829 
1644	 0.275583641624769 
1645	 0.275485184947685 
1646	 0.275240117035643 
1647	 0.275491990162517 
1648	 0.27624835478832 
1649	 0.276591041070379 
1650	 0.277283734007413 
1651	 0.27732684367703 
1652	 0.276755221465289 
1653	 0.27640446837068 
1654	 0.275792630007577 
1655	 0.275382163809093 
1656	 0.27492902101399 
1657	 0.274827496069391 
1658	 0.274931221647104 
1659	 0.275020404835715 
1660	 0.275621458029467 
1661	 0.275621119644995 
1662	 0.275088808232717 
1663	 0.275059039096459 
1664	 0.275075265786129 
1665	 0.275010436415419 
1666	 0.275355118412173 
1667	 0.275287778440003 
1668	 0.27453481960043 
1669	 0.274441059322656 
1670	 0.274892874322849 
1671	 0.274762270112333 
1672	 0.274564282790666 
1673	 0.274406716396113 
1674	 0.273711431518653 
1675	 0.273403331893547 
1676	 0.273643450006406 
1677	 0.273565748507307 
1678	 0.273201786545185 
1679	 0.2731349253508 
1680	 0.273113352108309 
1681	 0.273175836072232 
1682	 0.273621210468648 
1683	 0.273743446122234 
1684	 0.274043452966273 
1685	 0.273763104016283 
1686	 0.272609121794176 
1687	 0.272116836415793 
1688	 0.271694695457013 
1689	 0.271135971341317 
1690	 0.271139988474644 
1691	 0.270687962188738 
1692	 0.269718589036717 
1693	 0.268757809239637 
1694	 0.267392133938306 
1695	 0.266558822677948 
1696	 0.265718076793872 
1697	 0.265240061082975 
1698	 0.265514049996014 
1699	 0.265515021349399 
1700	 0.265768128206588 
1701	 0.265614456542715 
1702	 0.26514167859628 
1703	 0.264716471485939 
1704	 0.26369996953839 
1705	 0.263323785122533 
1706	 0.263572120526074 
1707	 0.263476555065452 
1708	 0.263894972262511 
1709	 0.263636802806037 
1710	 0.262662989100825 
1711	 0.261808119598888 
1712	 0.260271650605947 
1713	 0.259455041108994 
1714	 0.25943328971674 
1715	 0.258762782813849 
1716	 0.257933728359236 
1717	 0.25739182018854 
1718	 0.256332198277377 
1719	 0.255754096468462 
1720	 0.256083547552443 
1721	 0.25593503992359 
1722	 0.255560909563616 
1723	 0.255323251878199 
1724	 0.255037376798427 
1725	 0.254749466974266 
1726	 0.254665790181756 
1727	 0.254311233876503 
1728	 0.253473645020734 
1729	 0.253116131681381 
1730	 0.253043473887367 
1731	 0.252770345774163 
1732	 0.252807683857297 
1733	 0.252585682492234 
1734	 0.25195253055962 
1735	 0.251410811568421 
1736	 0.251122900475943 
1737	 0.250463867164561 
1738	 0.249454048070081 
1739	 0.248522166468779 
1740	 0.246723441161142 
1741	 0.246093898385369 
1742	 0.246913691264495 
1743	 0.246657939318533 
1744	 0.246612261761741 
1745	 0.246144150668297 
1746	 0.244297350698527 
1747	 0.243134687260356 
1748	 0.242276844982464 
1749	 0.241780965746676 
1750	 0.241697988744629 
1751	 0.241446465768028 
1752	 0.241695253769518 
1753	 0.241353940613734 
1754	 0.240353676532342 
1755	 0.239758518616229 
1756	 0.239237050993855 
1757	 0.238574064921072 
1758	 0.237977394760076 
1759	 0.23745678428868 
1760	 0.236656777215193 
1761	 0.23606291823099 
1762	 0.235764918037776 
1763	 0.235506603986511 
1764	 0.235395817068105 
1765	 0.235121300284687 
1766	 0.23463014733662 
1767	 0.234518874170365 
1768	 0.234967474658733 
1769	 0.234555417033157 
1770	 0.233550787579792 
1771	 0.233290920898373 
1772	 0.232730036070131 
1773	 0.232526855172449 
1774	 0.233575270000092 
1775	 0.233752721517859 
1776	 0.233242506223466 
1777	 0.232897555000261 
1778	 0.231938149280124 
1779	 0.231984408121716 
1780	 0.233025032301368 
1781	 0.232929766515115 
1782	 0.233062240301637 
1783	 0.23294166852554 
1784	 0.23113123005084 
1785	 0.231187506838674 
1786	 0.232797155032453 
1787	 0.233199974662407 
1788	 0.234138169915883 
1789	 0.234196803145404 
1790	 0.232985797084232 
1791	 0.232137527306686 
1792	 0.230664435108448 
1793	 0.230502150193478 
1794	 0.231130944294841 
1795	 0.231506989539243 
1796	 0.232911819214617 
1797	 0.233401223058158 
1798	 0.233049514790808 
1799	 0.233179636333999 
1800	 0.233588427318898 
1801	 0.237292902971586 
1802	 0.237334136606667 
1803	 0.236870100821477 
1804	 0.234937438465073 
1805	 0.235633481659892 
1806	 0.239085661007675 
1807	 0.240672124158766 
1808	 0.242271130100852 
1809	 0.244326791145686 
1810	 0.245067516953552 
1811	 0.245053288570372 
1812	 0.244322749910899 
1813	 0.243170044417213 
1814	 0.242346241854365 
1815	 0.240821978429299 
1816	 0.240353027715183 
1817	 0.240847432537762 
1818	 0.240670064807733 
1819	 0.240417626345592 
1820	 0.240803314312201 
1821	 0.240311851613518 
1822	 0.239375059238729 
1823	 0.240090177274093 
1824	 0.24274430976012 
1825	 0.243261212401512 
1826	 0.243577925169014 
1827	 0.244259434507999 
1828	 0.244475659950996 
1829	 0.243647846240939 
1830	 0.244192309681722 
1831	 0.244336900787005 
1832	 0.242776848511795 
1833	 0.242208457046382 
1834	 0.241370475917611 
1835	 0.239566142784274 
1836	 0.239352387292643 
1837	 0.240743827078144 
1838	 0.239657686222527 
1839	 0.239648932394249 
1840	 0.243252402353839 
1841	 0.244796505378774 
1842	 0.244655672296589 
1843	 0.243994387276009 
1844	 0.239859308864326 
1845	 0.238002132790707 
1846	 0.23661912019548 
1847	 0.235541341393913 
1848	 0.235133105573407 
1849	 0.23545560625728 
1850	 0.234969042320597 
1851	 0.232382268882505 
1852	 0.230766556575213 
1853	 0.229095789839667 
1854	 0.226283220946744 
1855	 0.224066377177077 
1856	 0.223142411042323 
1857	 0.223588472209853 
1858	 0.222934181938216 
1859	 0.221320805337198 
1860	 0.220051832305991 
1861	 0.215918640786497 
1862	 0.212673466713966 
1863	 0.211782929729801 
1864	 0.210213746735155 
1865	 0.209315148469488 
1866	 0.206978307461022 
1867	 0.203777927841155 
1868	 0.19935716968536 
1869	 0.195306305861216 
1870	 0.190039895327821 
1871	 0.184795539325725 
1872	 0.18063407760518 
1873	 0.176503627953182 
1874	 0.172106567438043 
1875	 0.167903921863803 
1876	 0.16470590902371 
1877	 0.161825116870139 
1878	 0.158220502038136 
1879	 0.154646950235342 
1880	 0.151477453630923 
1881	 0.147656206696845 
1882	 0.142678082362011 
1883	 0.137068645608799 
1884	 0.133503713654873 
1885	 0.130126290577167 
1886	 0.124911433837429 
1887	 0.122701111726589 
1888	 0.12000658730602 
1889	 0.117546745224421 
1890	 0.11522432689349 
1891	 0.115066358099688 
1892	 0.11165074721508 
1893	 0.108287597072918 
1894	 0.104676610479153 
1895	 9.97520738620801E-02 
1896	 9.54894576748051E-02 
1897	 9.19180497600013E-02 
1898	 8.97913465052866E-02 
1899	 8.75313470675883E-02 
1900	 8.56756405937202E-02 
1901	 8.43123646308896E-02 
1902	 8.35605130641856E-02 
1903	 8.26965682898953E-02 
1904	 8.16490866365392E-02 
1905	 8.19767002865274E-02 
1906	 0.083299122213514 
1907	 8.23405056398056E-02 
1908	 8.20513537651872E-02 
1909	 8.31524975276173E-02 
1910	 8.24583342395326E-02 
1911	 8.01652060389157E-02 
1912	 0.079600344728189 
1913	 7.95886339501515E-02 
1914	 7.75199712979549E-02 
1915	 7.72858026720373E-02 
1916	 7.62422285034328E-02 
1917	 7.40373801612696E-02 
1918	 7.42530152067259E-02 
1919	 7.39948964612731E-02 
1920	 7.43637232832122E-02 
1921	 0.074331842589736 
1922	 7.34685418057227E-02 
1923	 7.31445180359499E-02 
1924	 7.27065511500158E-02 
1925	 7.36712565961428E-02 
1926	 7.47641692503882E-02 
1927	 7.50945074939539E-02 
1928	 7.43269144503802E-02 
1929	 7.31056644167517E-02 
1930	 7.26647235800766E-02 
1931	 7.26748344174278E-02 
1932	 0.073592003660066 
1933	 7.51719134011789E-02 
1934	 7.57050888171447E-02 
1935	 7.47844167266815E-02 
1936	 7.48043460632207E-02 
1937	 7.52374114350326E-02 
1938	 7.55162775011631E-02 
1939	 7.43355479856696E-02 
1940	 7.42092663101317E-02 
1941	 7.42658324205706E-02 
1942	 7.31621518710323E-02 
1943	 7.24820634424119E-02 
1944	 0.071926068620004 
1945	 7.14057505201677E-02 
1946	 6.98640320897372E-02 
1947	 6.96246892223274E-02 
1948	 7.02121428786641E-02 
1949	 7.11119528241103E-02 
1950	 7.17296083721825E-02 
1951	 7.25420726155521E-02 
1952	 7.29921973968437E-02 
1953	 7.48340335788983E-02 
1954	 7.63151617612135E-02 
1955	 0.076766855017523 
1956	 7.72801334846047E-02 
1957	 0.076675372117317 
1958	 7.71261601008575E-02 
1959	 7.83154554989333E-02 
1960	 7.89667684880468E-02 
1961	 8.01211890814228E-02 
1962	 8.07783964007454E-02 
1963	 7.99066096329358E-02 
1964	 7.91823947078017E-02 
1965	 7.91360664742319E-02 
1966	 7.89292339035332E-02 
1967	 7.82549492409598E-02 
1968	 7.85069255429319E-02 
1969	 7.81538942131034E-02 
1970	 7.66686602817218E-02 
1971	 7.63255603624084E-02 
1972	 0.075640761967312 
1973	 7.63621247915257E-02 
1974	 7.81672481074403E-02 
1975	 8.09926721213689E-02 
1976	 8.27483578009649E-02 
1977	 8.48127827281974E-02 
1978	 8.58774806665728E-02 
1979	 8.50474044813439E-02 
1980	 8.50333877160917E-02 
1981	 8.51601539177425E-02 
1982	 8.54674944475494E-02 
1983	 8.57333663314679E-02 
1984	 8.55489494223417E-02 
1985	 8.48374752114889E-02 
1986	 8.48457711036394E-02 
1987	 8.37892316086235E-02 
1988	 8.53454624197234E-02 
1989	 0.088244799810218 
1990	 9.04187522275581E-02 
1991	 9.11025181330463E-02 
1992	 9.05368587785091E-02 
1993	 9.00234027677585E-02 
1994	 8.75120104839684E-02 
1995	 0.086689574364205 
1996	 8.66898176663776E-02 
1997	 0.086491298450736 
1998	 8.64708213529404E-02 
1999	 8.64499616971414E-02 
2000	 8.62597271953763E-02 
2001	 8.67151902330323E-02 
2002	 0.088195451218803 
2003	 8.86912412455753E-02 
2004	 8.89421541145401E-02 
2005	 9.06394145520524E-02 
2006	 9.15574830172527E-02 
2007	 9.10669987845387E-02 
2008	 9.25311528502872E-02 
2009	 9.58598938369452E-02 
2010	 9.70588224212281E-02 
2011	 9.88800609531934E-02 
2012	 9.96829042818035E-02 
2013	 9.86879837680363E-02 
2014	 9.77303809992424E-02 
2015	 9.60906695959111E-02 
2016	 9.53623434175672E-02 
2017	 9.72111484361637E-02 
2018	 9.81935768767721E-02 
2019	 9.97217042862675E-02 
2020	 0.104291317684882 
2021	 0.104369423255823 
2022	 0.101891379228925 
2023	 0.100379724782937 
2024	 9.65631038042948E-02 
2025	 9.45721124724885E-02 
2026	 9.21228088724089E-02 
2027	 9.19845480772507E-02 
2028	 9.45804890083846E-02 
2029	 9.56332810021574E-02 
2030	 9.91653216358947E-02 
2031	 0.100925322851879 
2032	 0.101974655873966 
2033	 0.101412692069314 
2034	 0.10241904010698 
2035	 0.102970847780192 
2036	 0.104561331751042 
2037	 0.107158618052844 
2038	 0.108781685045563 
2039	 0.111030698815599 
2040	 0.112523414441723 
2041	 0.113366261420199 
2042	 0.114969693023873 
2043	 0.111764502853961 
2044	 0.109651980482991 
2045	 0.108373851341342 
2046	 0.105249198962679 
2047	 0.104362099615883 
2048	 0.106477503345387 
2049	 0.10641368191802 
2050	 0.104328321998487 
2051	 0.105255037161765 
2052	 0.1081881086112 
2053	 0.110312613875356 
2054	 0.11463030594799 
2055	 0.117092300299753 
2056	 0.118902929399541 
2057	 0.118256215410541 
2058	 0.119381029537965 
2059	 0.118659957738475 
2060	 0.118958190511135 
2061	 0.119713395278934 
2062	 0.119529362090066 
2063	 0.119708265509004 
2064	 0.118515720290996 
2065	 0.115899800022507 
2066	 0.113874770333587 
2067	 0.109990934098244 
2068	 0.108074677012663 
2069	 0.106141851784132 
2070	 0.105803094770647 
2071	 0.107327553308165 
2072	 0.111103468686371 
2073	 0.109240762120446 
2074	 0.110766860797169 
2075	 0.110087431270353 
2076	 0.104076975949093 
2077	 0.105850580838385 
2078	 0.11271371650586 
2079	 0.116329052814248 
2080	 0.12372347886606 
2081	 0.126858253020298 
2082	 0.126255441681373 
2083	 0.126560076357783 
2084	 0.126236830232124 
2085	 0.125223492659708 
2086	 0.123926001747017 
2087	 0.120545762453007 
2088	 0.118486395613749 
2089	 0.119616733778692 
2090	 0.119809697940842 
2091	 0.122375273192759 
2092	 0.122795296474004 
2093	 0.121834299469264 
2094	 0.121392876552948 
2095	 0.119275185771975 
2096	 0.120128861222988 
2097	 0.124409398023847 
2098	 0.124876359555297 
2099	 0.124135773861915 
2100	 0.125118845805029 
2101	 0.123377385356252 
2102	 0.1241722125166 
2103	 0.129403142312673 
2104	 0.133673853262678 
2105	 0.135379922738399 
2106	 0.135658725004181 
2107	 0.135993084992113 
2108	 0.134403843043478 
2109	 0.133656343987198 
2110	 0.132982613082586 
2111	 0.132323233575574 
2112	 0.131627788098665 
2113	 0.130706426843514 
2114	 0.128964333324251 
2115	 0.129157883172441 
2116	 0.129773857280159 
2117	 0.130564778324287 
2118	 0.133302413747489 
2119	 0.136122548773216 
2120	 0.134679915497696 
2121	 0.135449592252635 
2122	 0.135321927820599 
2123	 0.133853096319381 
2124	 0.133447281760903 
2125	 0.133709321039843 
2126	 0.133585983129297 
2127	 0.133325687707715 
2128	 0.133696441072196 
2129	 0.135694774718948 
2130	 0.135233780861235 
2131	 0.133421349456921 
2132	 0.131901212540951 
2133	 0.128195390491956 
2134	 0.126225386032522 
2135	 0.124419977297988 
2136	 0.124636627540633 
2137	 0.127513139371167 
2138	 0.127539976965257 
2139	 0.13176233377017 
2140	 0.140331089643405 
2141	 0.144111357017461 
2142	 0.148458030733234 
2143	 0.151043716751863 
2144	 0.150414982104488 
2145	 0.150026135773824 
2146	 0.150784651239593 
2147	 0.147879259882393 
2148	 0.140684848095624 
2149	 0.137013530132989 
2150	 0.131859100722186 
2151	 0.128873939261329 
2152	 0.128277331906843 
2153	 0.127757235563659 
2154	 0.126864468973193 
2155	 0.128534852771068 
2156	 0.131328101432837 
2157	 0.136503855994594 
2158	 0.139658271208461 
2159	 0.145259376329334 
2160	 0.145622593857691 
2161	 0.141785812340454 
2162	 0.141140326157465 
2163	 0.13932358727906 
2164	 0.137760978878866 
2165	 0.138533651686303 
2166	 0.137028858289355 
2167	 0.131977938669381 
2168	 0.130274369617563 
2169	 0.129440863815421 
2170	 0.129703364969463 
2171	 0.133545491865289 
2172	 0.134679726051424 
2173	 0.135410196262423 
2174	 0.134527955308029 
2175	 0.134395806756912 
2176	 0.134227869043584 
2177	 0.133269255735287 
2178	 0.132364497027378 
2179	 0.131839667813453 
2180	 0.129332471751326 
2181	 0.13017938709435 
2182	 0.134062376691926 
2183	 0.13652636701611 
2184	 0.139177489152967 
2185	 0.142493066066604 
2186	 0.147630183748934 
2187	 0.148978362211985 
2188	 0.151226088805058 
2189	 0.149501322286379 
2190	 0.139285471800968 
2191	 0.136461589710751 
2192	 0.135713932883833 
2193	 0.134501721103329 
2194	 0.136781205813509 
2195	 0.139195093682318 
2196	 0.13790564168224 
2197	 0.138596599840982 
2198	 0.139813983004021 
2199	 0.142713511391365 
2200	 0.143687954252465 
2201	 0.144810965026553 
2202	 0.14461484853814 
2203	 0.141562116250405 
2204	 0.142244401892321 
2205	 0.143948357935788 
2206	 0.146078606071438 
2207	 0.151562871131301 
2208	 0.154335128845774 
2209	 0.155866594087436 
2210	 0.157473276930774 
2211	 0.158542822618705 
2212	 0.158562950699701 
2213	 0.158379206590435 
2214	 0.15719999528498 
2215	 0.152633946954571 
2216	 0.151668323755539 
2217	 0.153253784336445 
2218	 0.153403596773393 
2219	 0.152673438741792 
2220	 0.153171219292227 
2221	 0.153019384720871 
2222	 0.150091654100654 
2223	 0.150973898044531 
2224	 0.155210972245581 
2225	 0.156415511733502 
2226	 0.157374345498484 
2227	 0.158027079440003 
2228	 0.157998276524904 
2229	 0.157096336746073 
2230	 0.15604444084674 
2231	 0.154230420716623 
2232	 0.149616076209334 
2233	 0.147529916718339 
2234	 0.147609645952999 
2235	 0.145406397646275 
2236	 0.142051236480734 
2237	 0.140829923965015 
2238	 0.13928785506795 
2239	 0.138430715042338 
2240	 0.141409209756137 
2241	 0.140892677930741 
2242	 0.138629199831376 
2243	 0.13511898042436 
2244	 0.131651769013163 
2245	 0.132374859815253 
2246	 0.134087760241189 
2247	 0.134918518887949 
2248	 0.136194209279274 
2249	 0.138320529390264 
2250	 0.137622267507719 
2251	 0.136117632564873 
2252	 0.134623504282939 
2253	 0.131438232023119 
2254	 0.128814415521372 
2255	 0.125872459541178 
2256	 0.123492774723954 
2257	 0.120526867821168 
2258	 0.118187962918188 
2259	 0.116769381253812 
2260	 0.116250289101637 
2261	 0.115937014480256 
2262	 0.116651157904013 
2263	 0.118372483169735 
2264	 0.120261504240031 
2265	 0.124142036018574 
2266	 0.125906136279406 
2267	 0.126468302687665 
2268	 0.12871943275142 
2269	 0.128374791839732 
2270	 0.126224499419746 
2271	 0.124052503061625 
2272	 0.123847636037049 
2273	 0.121906408475221 
2274	 0.116398480658139 
2275	 0.114950899956475 
2276	 0.113328703222925 
2277	 0.115516137693018 
2278	 0.12513342381737 
2279	 0.126479098022055 
2280	 0.12627517099552 
2281	 0.125999480257135 
2282	 0.121041182741727 
2283	 0.117894025742956 
2284	 0.114183927816016 
2285	 0.113607734513328 
2286	 0.114094471766102 
2287	 0.114881704050349 
2288	 0.121096985967999 
2289	 0.122224511811128 
2290	 0.120228510541404 
2291	 0.118270521232089 
2292	 0.112116923830638 
2293	 0.11080729899541 
2294	 0.112069703572158 
2295	 0.111402189361314 
2296	 0.114362508209727 
2297	 0.114213598161846 
2298	 0.10827653932111 
2299	 0.106276674202718 
2300	 0.104419461570287 
2301	 0.106437064175715 
2302	 0.107358107012664 
2303	 0.109533416428955 
2304	 0.106947680964762 
2305	 9.95378617141879E-02 
2306	 0.100378219775879 
2307	 0.102738706656988 
2308	 0.104374918862782 
2309	 0.108230426701569 
2310	 0.105720035114821 
2311	 9.97101501118886E-02 
2312	 0.104327985479783 
2313	 0.111006517325029 
2314	 0.110349888346796 
2315	 0.111591402502951 
2316	 0.109961225096412 
2317	 9.99809145945098E-02 
2318	 9.79346456589829E-02 
2319	 9.91943085939911E-02 
2320	 0.100435801614507 
2321	 0.104571093530456 
2322	 0.106414945800633 
2323	 0.109607992403199 
2324	 0.110670679700198 
2325	 0.110637251620717 
2326	 0.107822028216173 
2327	 9.84030182674023E-02 
2328	 9.88860408218054E-02 
2329	 0.101405491543338 
2330	 0.107966433775631 
2331	 0.129211149291539 
2332	 0.134616141398352 
2333	 0.130385543140517 
2334	 0.12970665911313 
2335	 0.121968602418967 
2336	 0.12024907343029 
2337	 0.126344368912148 
2338	 0.128569988499707 
2339	 0.129892013871369 
2340	 0.128432581329916 
2341	 0.125052456184493 
2342	 0.119859863702719 
2343	 0.115916717979025 
2344	 0.116813432483831 
2345	 0.121732081779145 
2346	 0.128858105913973 
2347	 0.12378139466766 
2348	 0.114532259911769 
2349	 0.11074835026986 
2350	 0.104635891688556 
2351	 0.105249648669595 
2352	 0.118151606233173 
2353	 0.12442968822555 
2354	 0.11980958636441 
2355	 0.120518296778955 
2356	 0.116007159190138 
2357	 9.76223336133373E-02 
2358	 8.84532341138579E-02 
2359	 8.33026822266195E-02 
2360	 6.70953280425504E-02 
2361	 6.65442771135928E-02 
2362	 7.15734358949482E-02 
2363	 6.47938993007622E-02 
2364	 7.41899237862735E-02 
2365	 0.083752575421997 
2366	 8.46388696945671E-02 
2367	 9.52953248912331E-02 
2368	 9.17536260365601E-02 
2369	 0.086392398746044 
2370	 9.15890772351081E-02 
2371	 8.79685685400751E-02 
2372	 8.86232434368051E-02 
2373	 9.59979888896846E-02 
2374	 9.39496777690837E-02 
2375	 8.97501275049708E-02 
2376	 9.22019107129959E-02 
2377	 0.083594754686339 
2378	 7.29247485918142E-02 
2379	 6.81119913361374E-02 
2380	 6.11141854418313E-02 
2381	 0.061707401265248 
2382	 7.06032651638425E-02 
2383	 7.45967947554353E-02 
2384	 7.65950479157982E-02 
2385	 8.09392195182451E-02 
2386	 8.05432829219337E-02 
2387	 8.65849849315221E-02 
2388	 0.104298232942339 
2389	 0.107974989204225 
2390	 0.108128854951269 
2391	 0.105712637390215 
2392	 9.15761005440644E-02 
2393	 8.53245774248655E-02 
2394	 7.93936627692177E-02 
2395	 7.34409718751461E-02 
2396	 7.16923225281941E-02 
2397	 7.31235052148428E-02 
2398	 8.14608794455308E-02 
2399	 8.00893061038951E-02 
2400	 7.12239719344985E-02 
2401	 6.56177640691196E-02 
2402	 4.89538778351996E-02 
2403	 5.32088966668845E-02 
2404	 7.94010175646303E-02 
2405	 8.55920758810056E-02 
2406	 9.03530215488245E-02 
2407	 9.55570302663352E-02 
2408	 9.15401338105369E-02 
2409	 9.06725160321997E-02 
2410	 0.10189209459622 
2411	 0.101538885038464 
2412	 8.25986287303916E-02 
2413	 7.64292154154716E-02 
2414	 7.20763906221494E-02 
2415	 6.45717618928413E-02 
2416	 6.61243453098717E-02 
2417	 6.27171406555912E-02 
2418	 5.29495649325098E-02 
2419	 5.91654810052956E-02 
2420	 6.77612372762089E-02 
2421	 7.23444473422657E-02 
2422	 0.086793623624237 
2423	 7.89361952962838E-02 
2424	 6.01619666877181E-02 
2425	 0.042288690306101 
2426	 8.11746705160344E-03 
2427	 2.05422471196055E-03 
2428	 2.72426357970428E-03 
2429	 1.28851033397902E-02 
2430	 5.43006278897308E-02 
2431	 7.20792054421401E-02 
2432	 8.50059645816465E-02 
2433	 9.32440222971263E-02 
2434	 8.82358975568704E-02 
2435	 7.12488303951733E-02 
2436	 4.35210212254769E-02 
2437	 2.88799176123952E-02 
2438	 6.75265620029758E-03 
2439	 2.77090783242823E-03 
2440	 2.06448410019538E-02 
2441	 2.54384580848486E-02 
2442	 3.09940177899201E-02 
2443	 2.14151680118052E-02 
2444	 1.29893407092797E-02 
2445	 1.09867793247439E-02 
2446	 2.26753825172883E-02 
2447	 3.24209452524788E-02 
2448	 4.09415741209603E-02 
2449	 5.96971070992083E-02 
2450	 5.42309990310304E-02 
2451	 5.10051625918741E-02 
2452	 5.50929478535772E-02 
2453	 5.13371060801145E-02 
2454	 6.84684827189571E-02 
2455	 8.81077985239577E-02 
2456	 0.075211106159351 
2457	 5.78801707929906E-02 
2458	 4.06383798828458E-02 
2459	 1.54476731077762E-02 
2460	 1.19870221171511E-02 
2461	 2.16348964438006E-03 
2462	-1.46318065943095E-02 
2463	-1.86024561977214E-02 
2464	-3.40301607532845E-02 
2465	-3.28186145539653E-02 
2466	-0.029350968594488 
2467	-5.15722313823209E-02 
2468	-5.24460468025611E-02 
2469	-3.55333313702799E-02 
2470	-1.06831775339827E-03 
2471	 5.52243367639554E-02 
2472	 0.119611881023782 
2473	 0.141904457150769 
2474	 0.12260871377894 
2475	 0.121009821795195 
2476	 0.10770438658906 
2477	 9.04436687223237E-02 
2478	 0.101114125985169 
2479	 0.119224915824276 
2480	 0.094064928603769 
2481	 6.94625807878438E-02 
2482	 8.03740317237602E-02 
2483	 3.25540682135694E-02 
2484	 5.45127132455916E-03 
2485	 2.83808811417656E-02 
2486	 1.50608837443683E-02 
2487	 1.00133624350226E-02 
2488	 1.98129597510229E-02 
2489	 1.65862812285108E-02 
2490	 0.030521082752169 
2491	 4.46933569942794E-02 
2492	 4.44376541295293E-02 
2493	 4.28404518437257E-02 
2494	 2.13032224026871E-02 
2495	 3.73264552786548E-02 
2496	 3.55954001589291E-02 
2497	 1.14734606121924E-02 
2498	 2.80007889527825E-02 
2499	-8.5708419922002E-03 
2500	-3.24239040767434E-02 
