Wavelength	MAC_ARB_098_334_210602_L00004.asd
350	 2.00720627770187E-02 
351	-0.407955282030506 
352	-0.427037141603694 
353	 8.54568496352263E-02 
354	 0.180162156469447 
355	 1.25343860095517E-02 
356	-0.141196669703458 
357	-0.199373507109395 
358	-4.64255555851406E-02 
359	 9.25220063484331E-02 
360	 3.28478268390407E-02 
361	 4.18370842776387E-02 
362	-3.56833124203712E-02 
363	-0.098598383027495 
364	 4.06060056376356E-03 
365	 8.83500116682275E-02 
366	 0.123731200776766 
367	 0.112124763572237 
368	 6.45651276122586E-02 
369	 3.22173509568081E-02 
370	 0.018974406093018 
371	 1.52695437994895E-02 
372	 1.34622939652163E-02 
373	 1.57459170420529E-02 
374	 3.42332177730656E-02 
375	 7.38776040544863E-02 
376	 6.16974846600953E-02 
377	 4.25012865559748E-02 
378	 4.03899845471752E-02 
379	 4.36591769351014E-02 
380	 0.072348718082801 
381	 7.77457484065862E-02 
382	 4.06639331465909E-02 
383	 4.58185630673138E-02 
384	 0.056356902761138 
385	 6.09149146632767E-02 
386	 5.85830471049086E-02 
387	 4.43288820237428E-02 
388	 4.28965342146547E-02 
389	 5.62796265024458E-02 
390	 6.03502599214336E-02 
391	 5.81600730890071E-02 
392	 4.05303048162459E-02 
393	 1.67119106240813E-02 
394	 5.30008379814909E-02 
395	 6.13858305046505E-02 
396	 4.49746111115771E-02 
397	 4.13827157971499E-02 
398	 4.99128983901457E-02 
399	 5.18841572502132E-02 
400	 4.54674452756448E-02 
401	 4.71088882196655E-02 
402	 5.16295146562173E-02 
403	 0.056618032527538 
404	 5.74702502619166E-02 
405	 3.96222371122073E-02 
406	 3.92198063865362E-02 
407	 5.13224769937573E-02 
408	 5.58182883788505E-02 
409	 6.12173259317702E-02 
410	 6.22222848086327E-02 
411	 5.80055229033673E-02 
412	 5.34956657230631E-02 
413	 4.71107796625927E-02 
414	 4.46709186006287E-02 
415	 4.85886068318838E-02 
416	 5.02593654863114E-02 
417	 0.04899171136804 
418	 0.050087180433925 
419	 5.86250777919067E-02 
420	 0.059995572540399 
421	 5.63752771267053E-02 
422	 5.15150200324834E-02 
423	 4.92313158895432E-02 
424	 5.14259079566897E-02 
425	 5.61410758359737E-02 
426	 5.99818607440761E-02 
427	 5.80940408084025E-02 
428	 5.64029968370979E-02 
429	 5.65802873394408E-02 
430	 5.76700263938147E-02 
431	 5.79009375368284E-02 
432	 5.79269391039479E-02 
433	 0.058070080499486 
434	 5.77909129932269E-02 
435	 5.67485568749719E-02 
436	 5.65237441999227E-02 
437	 5.80499221582632E-02 
438	 5.83116519988768E-02 
439	 0.056828152067815 
440	 5.58757296160461E-02 
441	 5.88006912944971E-02 
442	 5.87138477183149E-02 
443	 5.82843528805983E-02 
444	 5.88620309186553E-02 
445	 5.66631668233543E-02 
446	 5.59652650530028E-02 
447	 5.72899772390469E-02 
448	 5.95171681573135E-02 
449	 6.07008243591719E-02 
450	 6.01884876408552E-02 
451	 5.95435532199862E-02 
452	 6.19564507978527E-02 
453	 6.20927339397962E-02 
454	 6.16860678586909E-02 
455	 6.22308313377739E-02 
456	 6.12364988822424E-02 
457	 5.99710563885367E-02 
458	 5.91906573633592E-02 
459	 5.93089098113629E-02 
460	 6.00082193581362E-02 
461	 6.06360919121455E-02 
462	 0.060702811129115 
463	 5.99473877160931E-02 
464	 6.10664401653433E-02 
465	 6.13667922513974E-02 
466	 5.90864982241131E-02 
467	 6.04499737092307E-02 
468	 6.02263448474533E-02 
469	 5.83023160221039E-02 
470	 5.77505997057872E-02 
471	 5.79593641418835E-02 
472	 5.89057306388569E-02 
473	 6.03726973666421E-02 
474	 6.19022987572357E-02 
475	 6.14317433873244E-02 
476	 6.01889328482341E-02 
477	 6.02447863132723E-02 
478	 6.20601600782544E-02 
479	 6.16283148536246E-02 
480	 5.96149454084498E-02 
481	 6.08009027355963E-02 
482	 6.06972445801704E-02 
483	 6.02516834441894E-02 
484	 6.09055395084127E-02 
485	 6.33628503228402E-02 
486	 6.17164539519354E-02 
487	 5.87293509443153E-02 
488	 6.00120696419088E-02 
489	 5.91178649203312E-02 
490	 5.97701526431346E-02 
491	 6.22188515129701E-02 
492	 0.06108668445144 
493	 6.05395176727239E-02 
494	 6.12418454684335E-02 
495	 6.23954314340796E-02 
496	 6.14276725335155E-02 
497	 6.03308839538143E-02 
498	 6.03927968426742E-02 
499	 0.062075581459576 
500	 6.31903746033085E-02 
501	 6.35342094723435E-02 
502	 6.36655507357794E-02 
503	 6.50364145691988E-02 
504	 0.066047042103486 
505	 6.68273390573796E-02 
506	 6.80217397013092E-02 
507	 6.95668808614005E-02 
508	 6.99626034878069E-02 
509	 6.93169120288642E-02 
510	 6.95066080731089E-02 
511	 7.15192736911322E-02 
512	 7.39378656653632E-02 
513	 7.52354234134486E-02 
514	 0.075171340423202 
515	 7.62460973851391E-02 
516	 7.80815370992913E-02 
517	 7.88629289069133E-02 
518	 8.04527011845334E-02 
519	 8.26012761998162E-02 
520	 8.44263857618101E-02 
521	 8.42233231704579E-02 
522	 8.62983964028112E-02 
523	 8.94327498417177E-02 
524	 9.12185332912194E-02 
525	 9.28422871655255E-02 
526	 9.56550064240941E-02 
527	 9.87901184221185E-02 
528	 9.95486744510665E-02 
529	 0.100182623934242 
530	 0.102004713062696 
531	 0.105057889333619 
532	 0.106722022228032 
533	 0.107931642314545 
534	 0.109631146846837 
535	 0.112360666622639 
536	 0.113061994648855 
537	 0.113621879617664 
538	 0.115109038473135 
539	 0.116635245957889 
540	 0.118016243770745 
541	 0.119082595501046 
542	 0.119780107943146 
543	 0.120161266448777 
544	 0.121641529976049 
545	 0.123555441511462 
546	 0.123642840886173 
547	 0.124619649946542 
548	 0.125612609315066 
549	 0.125792772527483 
550	 0.125959834146251 
551	 0.1267125058492 
552	 0.127530976035105 
553	 0.127487019435538 
554	 0.127149337751147 
555	 0.127275275908106 
556	 0.12767869630727 
557	 0.126815562737258 
558	 0.12607369136368 
559	 0.125569245873688 
560	 0.125081777075092 
561	 0.124608280831932 
562	 0.123770784451594 
563	 0.122933041599912 
564	 0.122925139876739 
565	 0.121803775149786 
566	 0.120447499959849 
567	 0.119594013623583 
568	 0.118468009050546 
569	 0.117147287118781 
570	 0.11600812090093 
571	 0.115411322519363 
572	 0.114427774886376 
573	 0.11335316666413 
574	 0.112198551629617 
575	 0.110417572308118 
576	 0.109311320760203 
577	 0.10847466910394 
578	 0.107284239605781 
579	 0.106252700345538 
580	 0.105483177067706 
581	 0.104973407081227 
582	 0.104615520477584 
583	 0.104072343586144 
584	 0.10279100338468 
585	 0.101101666227309 
586	 0.10138852066454 
587	 0.101531080583569 
588	 0.101181472400486 
589	 0.100697910591984 
590	 0.100151201173999 
591	 0.100091594329974 
592	 0.100199192352878 
593	 9.90770437250532E-02 
594	 9.82848465942405E-02 
595	 0.098281826756432 
596	 9.86984867803369E-02 
597	 9.72704473332996E-02 
598	 9.68651074856701E-02 
599	 9.73821783483859E-02 
600	 9.67576547955741E-02 
601	 9.59191486479968E-02 
602	 9.59006327396832E-02 
603	 9.67080631902598E-02 
604	 9.63446625193551E-02 
605	 9.54132168900123E-02 
606	 9.44887418053409E-02 
607	 0.093941852888843 
608	 9.26387055202194E-02 
609	 9.17363470655477E-02 
610	 9.13356345530059E-02 
611	 9.02701404349968E-02 
612	 8.95840108945896E-02 
613	 8.87439022708807E-02 
614	 8.74161944324744E-02 
615	 8.69028832284059E-02 
616	 8.68045404797322E-02 
617	 8.64604642842045E-02 
618	 8.52681403375715E-02 
619	 8.47886985213981E-02 
620	 8.46084427244136E-02 
621	 8.42433121563858E-02 
622	 8.34839418809192E-02 
623	 8.32938731456589E-02 
624	 8.32243592007689E-02 
625	 8.26754540526478E-02 
626	 8.27328844080103E-02 
627	 0.082724831327578 
628	 8.24492954705117E-02 
629	 8.22217791596366E-02 
630	 8.23475524257245E-02 
631	 8.25755788932917E-02 
632	 8.24977932144517E-02 
633	 8.14933782213153E-02 
634	 8.10507631803819E-02 
635	 8.09751542577882E-02 
636	 8.03981887597889E-02 
637	 0.080240633746514 
638	 7.98147966978851E-02 
639	 7.88390561321467E-02 
640	 7.77745608974064E-02 
641	 0.077553823053775 
642	 7.71472156919088E-02 
643	 7.57182564567285E-02 
644	 0.075450783911488 
645	 7.41280753197854E-02 
646	 7.24720193055828E-02 
647	 7.29895870178399E-02 
648	 7.16195959995078E-02 
649	 7.08458483810351E-02 
650	 7.17781901892737E-02 
651	 7.08578544290635E-02 
652	 6.98591919737434E-02 
653	 6.92170936676448E-02 
654	 6.88949425988968E-02 
655	 6.87956140847898E-02 
656	 6.81923883719558E-02 
657	 6.70602616235241E-02 
658	 6.61279168288892E-02 
659	 6.59184835913915E-02 
660	 6.56478866620803E-02 
661	 6.48203004084342E-02 
662	 6.45998219033495E-02 
663	 6.36147356287046E-02 
664	 6.26230783559845E-02 
665	 6.29502251288184E-02 
666	 6.14600117010771E-02 
667	 6.07285227840102E-02 
668	 6.13181048329441E-02 
669	 6.03246321273964E-02 
670	 0.06038715297014 
671	 6.04920714463109E-02 
672	 5.95528798206944E-02 
673	 5.96602084879288E-02 
674	 6.03044108909412E-02 
675	 6.07055618365787E-02 
676	 6.01486619175728E-02 
677	 6.04395190072107E-02 
678	 6.11104242435659E-02 
679	 6.14598669876058E-02 
680	 6.08877702398873E-02 
681	 6.07874218227304E-02 
682	 6.15515034327564E-02 
683	 6.29412079084628E-02 
684	 6.37067828353454E-02 
685	 6.43497585289765E-02 
686	 6.54475845068343E-02 
687	 6.74960763981995E-02 
688	 6.97442550587497E-02 
689	 7.21972636741732E-02 
690	 7.50861954822176E-02 
691	 7.88583094256188E-02 
692	 0.082849370344243 
693	 0.087825151469155 
694	 9.45869609050324E-02 
695	 0.101060450868966 
696	 0.107872550319843 
697	 0.115529691666565 
698	 0.124216399333688 
699	 0.133293416658646 
700	 0.142907332572668 
701	 0.153024104600722 
702	 0.162593715269462 
703	 0.172526261262039 
704	 0.182870902194506 
705	 0.193335411757203 
706	 0.203931254629103 
707	 0.214550249868159 
708	 0.224805435378521 
709	 0.234104279337561 
710	 0.243933217388192 
711	 0.254030066127273 
712	 0.264020553164742 
713	 0.274489734206032 
714	 0.283468975634325 
715	 0.292149588469112 
716	 0.302574326986688 
717	 0.310599081470442 
718	 0.319009180786322 
719	 0.328294956204142 
720	 0.335488013825784 
721	 0.343459694158729 
722	 0.351574187697319 
723	 0.35879454992942 
724	 0.365282961832956 
725	 0.371643266346877 
726	 0.377957489309551 
727	 0.383967322071351 
728	 0.389318105867584 
729	 0.394769477671068 
730	 0.400227997058029 
731	 0.404462922461363 
732	 0.408742963041307 
733	 0.412856004623024 
734	 0.416498056556714 
735	 0.420189436448295 
736	 0.422996284817455 
737	 0.425543348460066 
738	 0.428854309901951 
739	 0.430888161930673 
740	 0.433249732509314 
741	 0.436239074068765 
742	 0.438362749485288 
743	 0.440148753599403 
744	 0.441717432377601 
745	 0.443150826006754 
746	 0.444632308789028 
747	 0.445915312232332 
748	 0.447041982404912 
749	 0.448136137232133 
750	 0.448940983113785 
751	 0.449877520191991 
752	 0.450655578600855 
753	 0.450357640206235 
754	 0.45111278748857 
755	 0.451867762212135 
756	 0.45180635438867 
757	 0.451948430495534 
758	 0.452936434352406 
759	 0.453863324732719 
760	 0.453686624365236 
761	 0.453894534009812 
762	 0.454168795603091 
763	 0.454396958698778 
764	 0.454686375638614 
765	 0.455001791136371 
766	 0.454933164223072 
767	 0.45462651374933 
768	 0.455300837035887 
769	 0.455212493077343 
770	 0.454923007345624 
771	 0.455306817439385 
772	 0.45577957126164 
773	 0.455595251063039 
774	 0.455200842313919 
775	 0.455585718919452 
776	 0.455699749727191 
777	 0.455315910986874 
778	 0.454897796336577 
779	 0.455594178952854 
780	 0.455987486481019 
781	 0.455848669282975 
782	 0.455480716562047 
783	 0.455809968498574 
784	 0.456157676480182 
785	 0.456218553068341 
786	 0.455976058641699 
787	 0.456026024225536 
788	 0.456264241816385 
789	 0.456456050049355 
790	 0.456347526828025 
791	 0.456351962608634 
792	 0.456598737851934 
793	 0.456816798478974 
794	 0.456158715888969 
795	 0.455927262863206 
796	 0.456309327598169 
797	 0.45699168107401 
798	 0.457252901766932 
799	 0.457142822672631 
800	 0.457032785985488 
801	 0.457291167465346 
802	 0.457077433197339 
803	 0.457098897531002 
804	 0.45735368332572 
805	 0.457091836235072 
806	 0.456865076783621 
807	 0.457081377461236 
808	 0.457572010146833 
809	 0.457175781954831 
810	 0.457106039470398 
811	 0.457217119018774 
812	 0.457145390505174 
813	 0.457246268788267 
814	 0.45718420748044 
815	 0.456986550615834 
816	 0.456886706889033 
817	 0.457076685193169 
818	 0.457126064525657 
819	 0.457105932038602 
820	 0.457515462188772 
821	 0.457295200141762 
822	 0.457005980230459 
823	 0.457076896200879 
824	 0.457265456332103 
825	 0.457381371923961 
826	 0.457393548053124 
827	 0.457372515083405 
828	 0.457528621545914 
829	 0.457499445597017 
830	 0.457426202212728 
831	 0.457547722077999 
832	 0.457381276384966 
833	 0.457190199904385 
834	 0.457132825957188 
835	 0.457226826439596 
836	 0.457307575192099 
837	 0.457235415482826 
838	 0.457162332071788 
839	 0.457543175111358 
840	 0.457433045765166 
841	 0.457114426010982 
842	 0.457030091465467 
843	 0.457421238394531 
844	 0.457195511145877 
845	 0.45722536727212 
846	 0.458173478615184 
847	 0.457772665508697 
848	 0.457574803774965 
849	 0.457885726803181 
850	 0.458277216482928 
851	 0.458104928796478 
852	 0.457781467376834 
853	 0.457447750774206 
854	 0.457030813928178 
855	 0.457000054222707 
856	 0.457466094692879 
857	 0.458103198935498 
858	 0.458176517262544 
859	 0.457735519181431 
860	 0.457191923012348 
861	 0.457055940910967 
862	 0.457863245024074 
863	 0.45752827580693 
864	 0.456782115589561 
865	 0.456758151332942 
866	 0.457419901117274 
867	 0.457751912060253 
868	 0.457799881371636 
869	 0.457833960878616 
870	 0.457045461358424 
871	 0.456781827054641 
872	 0.457094103357667 
873	 0.457293065728725 
874	 0.457395334250919 
875	 0.457340168709775 
876	 0.457165878618966 
877	 0.457047722414015 
878	 0.457615077400378 
879	 0.458302978098688 
880	 0.458222813693487 
881	 0.456612288957127 
882	 0.456939063985611 
883	 0.457262934034312 
884	 0.456572672187115 
885	 0.456767343570743 
886	 0.457520882618303 
887	 0.457961769837667 
888	 0.457606662527085 
889	 0.457062512727955 
890	 0.457742922715963 
891	 0.458270738860491 
892	 0.457454518879243 
893	 0.457211935498627 
894	 0.456826917361441 
895	 0.456705797284364 
896	 0.457221697052699 
897	 0.457206975292511 
898	 0.457108019197524 
899	 0.457001876798386 
900	 0.45682793497757 
901	 0.45674635864867 
902	 0.456913905335823 
903	 0.457287588839674 
904	 0.457528511058411 
905	 0.456336514117774 
906	 0.455842345450899 
907	 0.456198416571137 
908	 0.456027679171481 
909	 0.456357891519785 
910	 0.45616587213766 
911	 0.455812471249799 
912	 0.456767910318775 
913	 0.456679313107232 
914	 0.456439186433851 
915	 0.456453322307403 
916	 0.456100034133446 
917	 0.454841056718106 
918	 0.454876717541046 
919	 0.456142460462881 
920	 0.455373062135569 
921	 0.454439502812496 
922	 0.455644664951943 
923	 0.45785822294156 
924	 0.455355622327425 
925	 0.455261329950671 
926	 0.45595402129981 
927	 0.455897475124305 
928	 0.456800700427409 
929	 0.455491733197594 
930	 0.454501453602164 
931	 0.455678029068516 
932	 0.457065823449902 
933	 0.455707831885901 
934	 0.454959328961822 
935	 0.456452346735081 
936	 0.455014161574158 
937	 0.454852938835821 
938	 0.45469555495478 
939	 0.453441485340224 
940	 0.453389635994657 
941	 0.454196309882801 
942	 0.454289433362079 
943	 0.452916806611232 
944	 0.451916461577004 
945	 0.452047666855643 
946	 0.453316917157024 
947	 0.454383079342142 
948	 0.451684352975796 
949	 0.45070207028758 
950	 0.450807110658316 
951	 0.450599268346296 
952	 0.451357925787873 
953	 0.44943716268617 
954	 0.447075495741332 
955	 0.446786647439966 
956	 0.447542366148318 
957	 0.44733296392835 
958	 0.446792925909671 
959	 0.446752405672021 
960	 0.446643872594292 
961	 0.446703412818205 
962	 0.445820222465004 
963	 0.444506453102619 
964	 0.446856354203412 
965	 0.445479155281135 
966	 0.444069017247809 
967	 0.444912013696873 
968	 0.442726775876239 
969	 0.442957239300338 
970	 0.445628335952383 
971	 0.447591110500135 
972	 0.443556363357699 
973	 0.444677121062721 
974	 0.446773315166624 
975	 0.445720565932022 
976	 0.442741381464324 
977	 0.442288638508826 
978	 0.443177668638479 
979	 0.443937018405333 
980	 0.444301628756491 
981	 0.444589560331473 
982	 0.44577962061565 
983	 0.446465217429992 
984	 0.443542888810838 
985	 0.441379250207983 
986	 0.442881160130244 
987	 0.44412424680171 
988	 0.438580046421985 
989	 0.443279973165208 
990	 0.44302887148937 
991	 0.43962964432647 
992	 0.444987080934418 
993	 0.444184720479322 
994	 0.442262854737622 
995	 0.442765446339484 
996	 0.446241597931829 
997	 0.448576349297316 
998	 0.44513329024946 
999	 0.442412443305877 
1000	 0.446523910038292 
1001	 0.448403781965495 
1002	 0.448139653049602 
1003	 0.448050949280183 
1004	 0.446903349634131 
1005	 0.447615393274915 
1006	 0.449604731327415 
1007	 0.45046344018543 
1008	 0.452363074687721 
1009	 0.452801823056371 
1010	 0.450970824987756 
1011	 0.44965808186523 
1012	 0.449228603632593 
1013	 0.449158048314104 
1014	 0.448848316588221 
1015	 0.449487746478518 
1016	 0.451196593855784 
1017	 0.45128977074206 
1018	 0.451404844367668 
1019	 0.452039939946538 
1020	 0.452104936280862 
1021	 0.452518147730288 
1022	 0.4528516564314 
1023	 0.453506811771661 
1024	 0.453560441136459 
1025	 0.453229684312998 
1026	 0.452338496703335 
1027	 0.452221965710368 
1028	 0.451732550166506 
1029	 0.451312801973278 
1030	 0.451855475566783 
1031	 0.452586878965118 
1032	 0.453559921520563 
1033	 0.453883599933221 
1034	 0.45389968939471 
1035	 0.453957665217952 
1036	 0.453023314073317 
1037	 0.452682966326466 
1038	 0.452539112830166 
1039	 0.453411745393086 
1040	 0.453504502401526 
1041	 0.453566660484305 
1042	 0.454460556557198 
1043	 0.454289419954983 
1044	 0.454661095896685 
1045	 0.456789913308863 
1046	 0.457205540169508 
1047	 0.457617901951418 
1048	 0.457993933770928 
1049	 0.457425356797648 
1050	 0.457373293933463 
1051	 0.457786090584875 
1052	 0.458232938644196 
1053	 0.457914095307407 
1054	 0.457159600747341 
1055	 0.456234707737858 
1056	 0.455292807696163 
1057	 0.455325708117813 
1058	 0.45638159137252 
1059	 0.45749140636691 
1060	 0.457641844737692 
1061	 0.457525112520094 
1062	 0.456449133943129 
1063	 0.456251050680584 
1064	 0.455734887985581 
1065	 0.456314696123759 
1066	 0.45704602418647 
1067	 0.456793537170351 
1068	 0.456173435980723 
1069	 0.45542456148906 
1070	 0.455067020840593 
1071	 0.454996323880944 
1072	 0.455173782482146 
1073	 0.455620991344807 
1074	 0.456211926196341 
1075	 0.457427961399977 
1076	 0.458051398140174 
1077	 0.458707786708314 
1078	 0.459067217800598 
1079	 0.458614600170777 
1080	 0.458087164511893 
1081	 0.458127527349233 
1082	 0.458176893271479 
1083	 0.458343378432029 
1084	 0.458250233666743 
1085	 0.458124496130714 
1086	 0.457594579549391 
1087	 0.457400700018687 
1088	 0.457438427148387 
1089	 0.457476243564929 
1090	 0.457396144056634 
1091	 0.457356417148474 
1092	 0.457466957746678 
1093	 0.457615689662733 
1094	 0.457046009930691 
1095	 0.457204107783584 
1096	 0.457589140948271 
1097	 0.457141261991978 
1098	 0.457232516204406 
1099	 0.458021435910735 
1100	 0.457986766295652 
1101	 0.457371432267048 
1102	 0.457294472466698 
1103	 0.457536529922913 
1104	 0.457185980360541 
1105	 0.456620094714851 
1106	 0.456074592070851 
1107	 0.455931267785097 
1108	 0.45559221169994 
1109	 0.455805395120317 
1110	 0.456454492926567 
1111	 0.456712477103847 
1112	 0.456708973058389 
1113	 0.456540749551479 
1114	 0.456493114900987 
1115	 0.456179546167354 
1116	 0.455428076690588 
1117	 0.454783753450404 
1118	 0.453770017509519 
1119	 0.453197995562698 
1120	 0.452853024702737 
1121	 0.452534562663298 
1122	 0.45236698416115 
1123	 0.452307381599495 
1124	 0.451989818814696 
1125	 0.451418172901792 
1126	 0.45102983179024 
1127	 0.450728077289926 
1128	 0.450288390269985 
1129	 0.449766704632541 
1130	 0.449194963731459 
1131	 0.44854846060521 
1132	 0.447867231615037 
1133	 0.446879794868748 
1134	 0.44646899343227 
1135	 0.446178270191684 
1136	 0.445618237161916 
1137	 0.445024781919843 
1138	 0.444610206178295 
1139	 0.443861737036573 
1140	 0.442985245599567 
1141	 0.441786094813968 
1142	 0.440152161939241 
1143	 0.438888727196313 
1144	 0.437345487972341 
1145	 0.436063132933689 
1146	 0.43534940493895 
1147	 0.43431272552688 
1148	 0.433064252874972 
1149	 0.431896459696896 
1150	 0.430760568902186 
1151	 0.42956303691948 
1152	 0.428373790619299 
1153	 0.427176792371297 
1154	 0.426182450867663 
1155	 0.425107302260491 
1156	 0.424354404539385 
1157	 0.424036900612796 
1158	 0.423447553783155 
1159	 0.423002029289847 
1160	 0.422342545300982 
1161	 0.420983387869604 
1162	 0.420426553949894 
1163	 0.420240581847246 
1164	 0.420283948630544 
1165	 0.419998153681809 
1166	 0.420232334356388 
1167	 0.419834827147658 
1168	 0.418641306317212 
1169	 0.418096163855782 
1170	 0.417706955416349 
1171	 0.417367408222092 
1172	 0.41717291082923 
1173	 0.417020742479254 
1174	 0.417043134139168 
1175	 0.416940769083468 
1176	 0.417086272258851 
1177	 0.416840568992956 
1178	 0.416391451039284 
1179	 0.415656407239831 
1180	 0.415134388798676 
1181	 0.414351034804648 
1182	 0.413900366693671 
1183	 0.413789538328719 
1184	 0.413387217561231 
1185	 0.412778307998094 
1186	 0.412501068146027 
1187	 0.412224286695945 
1188	 0.412103651527372 
1189	 0.41257534646595 
1190	 0.412523460462311 
1191	 0.412148636023526 
1192	 0.411902950131946 
1193	 0.411598306906996 
1194	 0.410980022159249 
1195	 0.410799272605348 
1196	 0.410849651197615 
1197	 0.410879633298176 
1198	 0.411143991123698 
1199	 0.411127418367222 
1200	 0.410900793014579 
1201	 0.41097772251411 
1202	 0.41098999425776 
1203	 0.411186891352859 
1204	 0.411915699706783 
1205	 0.412213900045181 
1206	 0.412228228245104 
1207	 0.412403189139543 
1208	 0.412373191672684 
1209	 0.412561699912538 
1210	 0.412800033679106 
1211	 0.413329465573321 
1212	 0.413474209266051 
1213	 0.413437884653962 
1214	 0.413573183365085 
1215	 0.413623091018777 
1216	 0.413723482530335 
1217	 0.414039402696481 
1218	 0.414146196947035 
1219	 0.4139131523267 
1220	 0.414023522724136 
1221	 0.414177778300391 
1222	 0.414494921141648 
1223	 0.414976672043557 
1224	 0.415711383752511 
1225	 0.416366553227635 
1226	 0.417230571415674 
1227	 0.417645677921296 
1228	 0.417937733772825 
1229	 0.418220175399059 
1230	 0.418030436859931 
1231	 0.418376913337789 
1232	 0.419127367177216 
1233	 0.419551020979958 
1234	 0.420253807015219 
1235	 0.42051081034428 
1236	 0.420064882042174 
1237	 0.42016151367808 
1238	 0.420338598798305 
1239	 0.420504957748572 
1240	 0.421125879603194 
1241	 0.421793823980749 
1242	 0.422005583715114 
1243	 0.421874818374188 
1244	 0.421960335286266 
1245	 0.421765222998156 
1246	 0.422008874233249 
1247	 0.422658470262799 
1248	 0.423030316220313 
1249	 0.423538775168475 
1250	 0.423780844435123 
1251	 0.423711449390155 
1252	 0.423789607796629 
1253	 0.423887653019513 
1254	 0.423905156377926 
1255	 0.423874104027643 
1256	 0.423865431058792 
1257	 0.42387689692047 
1258	 0.423980164140815 
1259	 0.424083915591049 
1260	 0.424414837970447 
1261	 0.424446154599747 
1262	 0.424201747204356 
1263	 0.424188781565469 
1264	 0.424136744774498 
1265	 0.42423498856627 
1266	 0.424653309526043 
1267	 0.424798523182422 
1268	 0.424791247273983 
1269	 0.42487545742765 
1270	 0.425129301140851 
1271	 0.425036841821592 
1272	 0.424845527443658 
1273	 0.424411987210107 
1274	 0.424136995920702 
1275	 0.423541512025433 
1276	 0.423479481264408 
1277	 0.42399329196081 
1278	 0.42406626337355 
1279	 0.424190938749534 
1280	 0.424176830307712 
1281	 0.423900816031341 
1282	 0.423757589277686 
1283	 0.423666157502651 
1284	 0.423493044338423 
1285	 0.423283270137758 
1286	 0.423131705766818 
1287	 0.423008314268653 
1288	 0.422711314540726 
1289	 0.42222144776469 
1290	 0.422056486943371 
1291	 0.421802591772121 
1292	 0.421246709353635 
1293	 0.420956848710257 
1294	 0.420853079147828 
1295	 0.42053241098026 
1296	 0.420141104395985 
1297	 0.419814081250182 
1298	 0.419425038224637 
1299	 0.418914800703731 
1300	 0.418253419102474 
1301	 0.41790375998328 
1302	 0.417696143054765 
1303	 0.41741188116157 
1304	 0.417371104192318 
1305	 0.417054549916121 
1306	 0.416492168625509 
1307	 0.415960122187302 
1308	 0.415372929096824 
1309	 0.414973775261772 
1310	 0.414481477715878 
1311	 0.413754442994727 
1312	 0.413245884645421 
1313	 0.412599034413608 
1314	 0.411838932667238 
1315	 0.411056957836098 
1316	 0.410220599088848 
1317	 0.409110533287237 
1318	 0.408330355275219 
1319	 0.407712673594155 
1320	 0.40701806865907 
1321	 0.4065609998002 
1322	 0.405751247730775 
1323	 0.404760641191165 
1324	 0.403768799735429 
1325	 0.402671944559632 
1326	 0.401426588106772 
1327	 0.40018599146592 
1328	 0.398782553935027 
1329	 0.397357880751135 
1330	 0.396009664847046 
1331	 0.394646080974495 
1332	 0.393357160233655 
1333	 0.392217858292029 
1334	 0.391299091223337 
1335	 0.390066713021455 
1336	 0.388882133438461 
1337	 0.387539841101779 
1338	 0.385816773492872 
1339	 0.384391540842514 
1340	 0.383029321071644 
1341	 0.381742478217528 
1342	 0.380588337381725 
1343	 0.3793610625108 
1344	 0.378026985654289 
1345	 0.377028303177499 
1346	 0.37592225087902 
1347	 0.374709792198572 
1348	 0.373774620915092 
1349	 0.372995498054139 
1350	 0.372052627352193 
1351	 0.371052696169321 
1352	 0.370027688029762 
1353	 0.368846102972207 
1354	 0.367613247582616 
1355	 0.366289645833747 
1356	 0.36524083365612 
1357	 0.364212039819147 
1358	 0.363207007698018 
1359	 0.362583048181068 
1360	 0.361619673361269 
1361	 0.360646621180033 
1362	 0.359282681668759 
1363	 0.357751651284486 
1364	 0.355805654429546 
1365	 0.353824144407694 
1366	 0.35183145949584 
1367	 0.350046379567572 
1368	 0.348500805606319 
1369	 0.346866057727772 
1370	 0.345201413128297 
1371	 0.343569040531179 
1372	 0.341802891230132 
1373	 0.339824736763195 
1374	 0.337596804854132 
1375	 0.335111420482813 
1376	 0.332243157043705 
1377	 0.329406548636793 
1378	 0.326352003388014 
1379	 0.323218068225891 
1380	 0.320230388704857 
1381	 0.316586039744786 
1382	 0.312528359493542 
1383	 0.308402556584272 
1384	 0.303901302681754 
1385	 0.299281617950266 
1386	 0.294692777796865 
1387	 0.289728659241746 
1388	 0.284564395290032 
1389	 0.279141557474578 
1390	 0.273661095251519 
1391	 0.268272860425227 
1392	 0.262867908851466 
1393	 0.257292784677941 
1394	 0.251730709078803 
1395	 0.246035250467711 
1396	 0.240366786177042 
1397	 0.234517329597595 
1398	 0.229066740512836 
1399	 0.223719932464996 
1400	 0.218517362928657 
1401	 0.213607781502659 
1402	 0.20866647866131 
1403	 0.20360564729343 
1404	 0.199015538240073 
1405	 0.194704021333842 
1406	 0.190501004334888 
1407	 0.186580506350621 
1408	 0.182896793702667 
1409	 0.179051815996183 
1410	 0.175299708812552 
1411	 0.171688438374309 
1412	 0.168287527150308 
1413	 0.165305844124559 
1414	 0.16255586415178 
1415	 0.160270589703401 
1416	 0.158495073252284 
1417	 0.156677339123649 
1418	 0.154961920769292 
1419	 0.153066036745277 
1420	 0.150961209301418 
1421	 0.149031798630613 
1422	 0.146955128227488 
1423	 0.145289896695761 
1424	 0.14388591768905 
1425	 0.142598243453052 
1426	 0.141520709056651 
1427	 0.140547526952529 
1428	 0.139817287051923 
1429	 0.138936789642587 
1430	 0.138117262783935 
1431	 0.137341598470271 
1432	 0.13656221193568 
1433	 0.135660643320773 
1434	 0.134987095547765 
1435	 0.134270713491073 
1436	 0.133636810204758 
1437	 0.133212105556601 
1438	 0.132808693859301 
1439	 0.13271875789974 
1440	 0.132331981018596 
1441	 0.132000820828822 
1442	 0.132061822975115 
1443	 0.131754604159351 
1444	 0.131516534119722 
1445	 0.131524641098992 
1446	 0.131314554245675 
1447	 0.130704339080344 
1448	 0.130424170237864 
1449	 0.130135163639462 
1450	 0.130076838897791 
1451	 0.130474523419239 
1452	 0.130593573416867 
1453	 0.130714452085378 
1454	 0.130797026354117 
1455	 0.130544716354297 
1456	 0.1305037099821 
1457	 0.130569231977455 
1458	 0.130888730810125 
1459	 0.130888365282957 
1460	 0.131122728795871 
1461	 0.131413566884624 
1462	 0.131635166580805 
1463	 0.132144810725172 
1464	 0.132614708122514 
1465	 0.133130857628897 
1466	 0.133498491096177 
1467	 0.133783520700658 
1468	 0.134217517560682 
1469	 0.134570103272468 
1470	 0.135195996626372 
1471	 0.135857153363471 
1472	 0.13676731109809 
1473	 0.137389369451686 
1474	 0.137825427239147 
1475	 0.138475583361429 
1476	 0.139105264965737 
1477	 0.139840542975282 
1478	 0.140778168645458 
1479	 0.141739517499142 
1480	 0.142772173420414 
1481	 0.14366306646681 
1482	 0.144584235276552 
1483	 0.145488094303231 
1484	 0.146172906372457 
1485	 0.147028052298532 
1486	 0.147947147842434 
1487	 0.149056713024308 
1488	 0.150187817585867 
1489	 0.151281098596489 
1490	 0.152279255506008 
1491	 0.153060185387826 
1492	 0.154250177583058 
1493	 0.155746884335541 
1494	 0.156877370031573 
1495	 0.158044529186747 
1496	 0.158825794795054 
1497	 0.15937239316913 
1498	 0.160548640912408 
1499	 0.161670365681998 
1500	 0.162578089400795 
1501	 0.163607712826228 
1502	 0.164761321928868 
1503	 0.165991376523264 
1504	 0.167177422432079 
1505	 0.168555830817297 
1506	 0.169703472716936 
1507	 0.170432275792716 
1508	 0.171588592335366 
1509	 0.173162509896905 
1510	 0.174271926264359 
1511	 0.175302205459405 
1512	 0.176361391466445 
1513	 0.176981830769861 
1514	 0.177978033352107 
1515	 0.17942979279135 
1516	 0.180629168842589 
1517	 0.181676283878219 
1518	 0.182925685032586 
1519	 0.18434021140966 
1520	 0.185450320543475 
1521	 0.186577998816547 
1522	 0.187751076027594 
1523	 0.188593094937263 
1524	 0.189311092876787 
1525	 0.190424942039723 
1526	 0.191377481387878 
1527	 0.191935996952525 
1528	 0.192832840062746 
1529	 0.193630989860872 
1530	 0.194377088086247 
1531	 0.195667707233351 
1532	 0.196778326267036 
1533	 0.197991598325336 
1534	 0.199398264716744 
1535	 0.200619858379085 
1536	 0.201999020694446 
1537	 0.203003770930633 
1538	 0.203643137936351 
1539	 0.20446410863765 
1540	 0.205071192010375 
1541	 0.206002871548731 
1542	 0.207224805885402 
1543	 0.208272116775177 
1544	 0.209482072984241 
1545	 0.210374360325017 
1546	 0.211023007021112 
1547	 0.21171856240265 
1548	 0.212093576465351 
1549	 0.212893305804596 
1550	 0.213937111370626 
1551	 0.214903858915805 
1552	 0.216288046036484 
1553	 0.21722335516258 
1554	 0.217797217448528 
1555	 0.218445377694746 
1556	 0.218933807872825 
1557	 0.219269058032513 
1558	 0.220287814069388 
1559	 0.221565027624356 
1560	 0.222575804216514 
1561	 0.223742958435828 
1562	 0.224260587878822 
1563	 0.224587991558092 
1564	 0.225336797285379 
1565	 0.225975653067261 
1566	 0.226595042392374 
1567	 0.227395941159766 
1568	 0.228452542683974 
1569	 0.22940896565945 
1570	 0.230198689410931 
1571	 0.230946371548096 
1572	 0.231315188650424 
1573	 0.231621015968904 
1574	 0.2322964597328 
1575	 0.232927527409738 
1576	 0.233552507137825 
1577	 0.234257263210663 
1578	 0.234848760959751 
1579	 0.235307708973491 
1580	 0.235914774473333 
1581	 0.236394052686065 
1582	 0.237135115044233 
1583	 0.238166790563963 
1584	 0.239082110997689 
1585	 0.240169000624388 
1586	 0.240982092604512 
1587	 0.241669156208327 
1588	 0.24231663858222 
1589	 0.242730408090801 
1590	 0.243338075018386 
1591	 0.243869454460908 
1592	 0.244595592408554 
1593	 0.245803839767406 
1594	 0.246465587000074 
1595	 0.246897483701024 
1596	 0.247417482302449 
1597	 0.247570137374042 
1598	 0.247874340835552 
1599	 0.248393717900315 
1600	 0.248869390756854 
1601	 0.248953192526259 
1602	 0.24965572436623 
1603	 0.250981514285895 
1604	 0.251959288242069 
1605	 0.2532249471298 
1606	 0.254244747809336 
1607	 0.255003698877925 
1608	 0.255596735076675 
1609	 0.256114317025186 
1610	 0.256477897041691 
1611	 0.256612336971094 
1612	 0.256589562452764 
1613	 0.256772899046284 
1614	 0.257300279231211 
1615	 0.258012940071333 
1616	 0.25888189338157 
1617	 0.259423743797545 
1618	 0.260270924965786 
1619	 0.260802610775022 
1620	 0.261112276120945 
1621	 0.261426907345256 
1622	 0.260980454969986 
1623	 0.261348776503951 
1624	 0.261914633795758 
1625	 0.262588710086991 
1626	 0.26368703903004 
1627	 0.264157183697054 
1628	 0.264164648796899 
1629	 0.264302459516478 
1630	 0.264236741399537 
1631	 0.264447953906476 
1632	 0.264670297908718 
1633	 0.264948281408817 
1634	 0.265396233575555 
1635	 0.265830846188605 
1636	 0.266198817140002 
1637	 0.266749983309179 
1638	 0.267714244650075 
1639	 0.267982429718597 
1640	 0.267925179791206 
1641	 0.268054470297201 
1642	 0.267852468531075 
1643	 0.267878235735057 
1644	 0.268141924384174 
1645	 0.268358931112585 
1646	 0.268571509892983 
1647	 0.268536083685468 
1648	 0.268382727883968 
1649	 0.268501793817979 
1650	 0.268623876992481 
1651	 0.26860476035645 
1652	 0.268787297044735 
1653	 0.268843063726689 
1654	 0.268427597214496 
1655	 0.268371823655416 
1656	 0.268980188227055 
1657	 0.268778363260593 
1658	 0.267888865342705 
1659	 0.267733374978603 
1660	 0.267592741868523 
1661	 0.267362284754005 
1662	 0.267694081300737 
1663	 0.267620230665128 
1664	 0.266932709981645 
1665	 0.266636551951016 
1666	 0.266531958319292 
1667	 0.266487393269595 
1668	 0.266637084020235 
1669	 0.266546436527202 
1670	 0.266239603257436 
1671	 0.266313930961549 
1672	 0.26649465466288 
1673	 0.266626640203191 
1674	 0.267216362303625 
1675	 0.267383834809219 
1676	 0.267220789565158 
1677	 0.267068944150245 
1678	 0.266653704070527 
1679	 0.266492767559704 
1680	 0.266530583795166 
1681	 0.266267882750845 
1682	 0.266188435943113 
1683	 0.265691371430038 
1684	 0.264374250046723 
1685	 0.263695557945584 
1686	 0.263406012194303 
1687	 0.262727906197699 
1688	 0.261993875760213 
1689	 0.261501930896922 
1690	 0.260530519820944 
1691	 0.260141697447524 
1692	 0.261129023714687 
1693	 0.260825310153478 
1694	 0.259821400793498 
1695	 0.259059540112341 
1696	 0.257309061034107 
1697	 0.256332618911079 
1698	 0.256150204215795 
1699	 0.255739661953446 
1700	 0.255803103609253 
1701	 0.255240670562253 
1702	 0.253933037443262 
1703	 0.25324985011588 
1704	 0.252374710296671 
1705	 0.251862193268367 
1706	 0.252311099034433 
1707	 0.252221050554205 
1708	 0.251997230768749 
1709	 0.251600228525873 
1710	 0.250720214963954 
1711	 0.250171409620592 
1712	 0.249519150079668 
1713	 0.249182099520756 
1714	 0.249492530872115 
1715	 0.249351543779351 
1716	 0.249219172852284 
1717	 0.248840192715603 
1718	 0.248130394351376 
1719	 0.247307705543097 
1720	 0.245944346032738 
1721	 0.245201046357081 
1722	 0.244218170217758 
1723	 0.24404439131873 
1724	 0.245506772123975 
1725	 0.24577016719708 
1726	 0.246022710538317 
1727	 0.245802748186134 
1728	 0.244269642225085 
1729	 0.243267830378906 
1730	 0.242082476651473 
1731	 0.241515624800864 
1732	 0.241617819369798 
1733	 0.24146577563685 
1734	 0.241407618274902 
1735	 0.241727048226882 
1736	 0.242359949941801 
1737	 0.242481790149979 
1738	 0.242998193902159 
1739	 0.242962679518236 
1740	 0.241826486098244 
1741	 0.24125132424559 
1742	 0.240917185841885 
1743	 0.240446255862126 
1744	 0.240240188652147 
1745	 0.239626008021636 
1746	 0.238280568215086 
1747	 0.237702679413313 
1748	 0.237415184389322 
1749	 0.237062761047444 
1750	 0.237214997358606 
1751	 0.237200587235775 
1752	 0.236795906278001 
1753	 0.236819623931291 
1754	 0.237382976016981 
1755	 0.237535395567781 
1756	 0.237864286602872 
1757	 0.237569301361149 
1758	 0.236675567979779 
1759	 0.235958437753192 
1760	 0.23507839858435 
1761	 0.233917966690021 
1762	 0.232471014298424 
1763	 0.231350684400798 
1764	 0.229653785969625 
1765	 0.22893801800771 
1766	 0.229093368318721 
1767	 0.229034909929569 
1768	 0.229709528569767 
1769	 0.229785743445485 
1770	 0.229754281087421 
1771	 0.229422767784246 
1772	 0.22848040087286 
1773	 0.22781633321115 
1774	 0.226569911746488 
1775	 0.226340295716607 
1776	 0.226869991117415 
1777	 0.227112622493701 
1778	 0.228162556786859 
1779	 0.228450435582343 
1780	 0.228400600138257 
1781	 0.228121230246105 
1782	 0.227104706242327 
1783	 0.226669236633449 
1784	 0.226387572191338 
1785	 0.225740880106296 
1786	 0.224929752767121 
1787	 0.224940167546174 
1788	 0.225328743906231 
1789	 0.225167378035983 
1790	 0.225356433644145 
1791	 0.225276376177326 
1792	 0.224133531348089 
1793	 0.224215101388889 
1794	 0.22555230077697 
1795	 0.225982386155848 
1796	 0.225993930624011 
1797	 0.226075748274751 
1798	 0.226015139440578 
1799	 0.226281822029318 
1800	 0.226987097387392 
1801	 0.229730378661622 
1802	 0.229570596663302 
1803	 0.227983107267538 
1804	 0.22372121294377 
1805	 0.223656462296752 
1806	 0.225575306230721 
1807	 0.226245679663738 
1808	 0.227846449741848 
1809	 0.231732943769865 
1810	 0.231918671430906 
1811	 0.2323443347146 
1812	 0.233570890473863 
1813	 0.234592602530245 
1814	 0.235704682250003 
1815	 0.238837009469756 
1816	 0.238538072762025 
1817	 0.235198547739886 
1818	 0.23380814421104 
1819	 0.231372782163548 
1820	 0.228250785735284 
1821	 0.228579462374837 
1822	 0.229931479513075 
1823	 0.232116962484785 
1824	 0.236415905189555 
1825	 0.237805064515034 
1826	 0.240678744030359 
1827	 0.241603420357418 
1828	 0.239497298604815 
1829	 0.237769295993829 
1830	 0.237807777152484 
1831	 0.235237406173613 
1832	 0.235756682541446 
1833	 0.236130753650924 
1834	 0.23569806214702 
1835	 0.23554931814829 
1836	 0.236006008502033 
1837	 0.236356193466328 
1838	 0.235158068158472 
1839	 0.235861429102168 
1840	 0.236508609552225 
1841	 0.234883753433419 
1842	 0.234166327705521 
1843	 0.233709225705718 
1844	 0.231761840484487 
1845	 0.230770909135408 
1846	 0.22982808387423 
1847	 0.229159255210429 
1848	 0.229511425507827 
1849	 0.228952970627826 
1850	 0.226868229618875 
1851	 0.225578196630091 
1852	 0.222793152373419 
1853	 0.220601923875179 
1854	 0.22024474133328 
1855	 0.219188104378366 
1856	 0.218082130362404 
1857	 0.217701115679577 
1858	 0.21654112081926 
1859	 0.214664548164222 
1860	 0.212705792746381 
1861	 0.209716299673071 
1862	 0.207745049174763 
1863	 0.204824945400075 
1864	 0.200460946351026 
1865	 0.198631248274978 
1866	 0.196137350073826 
1867	 0.192876523240653 
1868	 0.188890661280647 
1869	 0.18673844948345 
1870	 0.183379042620358 
1871	 0.179639507170516 
1872	 0.177289146449042 
1873	 0.174650087042164 
1874	 0.171450300557477 
1875	 0.168489910763936 
1876	 0.164657093377563 
1877	 0.159501812419771 
1878	 0.155314670894665 
1879	 0.151200026765159 
1880	 0.14721537445134 
1881	 0.142408729483623 
1882	 0.138850297962957 
1883	 0.134524690146221 
1884	 0.127853420913024 
1885	 0.122983509436841 
1886	 0.118813725648846 
1887	 0.113810622926698 
1888	 0.110274214002413 
1889	 0.106605170532635 
1890	 0.103248105099086 
1891	 9.90641970856943E-02 
1892	 9.56884974134887E-02 
1893	 9.26624944670796E-02 
1894	 9.07679121244197E-02 
1895	 8.93543170498999E-02 
1896	 8.74469086268327E-02 
1897	 8.62955809540418E-02 
1898	 8.41664447828437E-02 
1899	 8.24842935839169E-02 
1900	 8.09521755476756E-02 
1901	 8.02615645170708E-02 
1902	 7.96639570782588E-02 
1903	 8.04726417201597E-02 
1904	 0.081053053313538 
1905	 7.99176503024957E-02 
1906	 7.86940560381827E-02 
1907	 7.56398570525347E-02 
1908	 0.074140277533249 
1909	 7.32810417991395E-02 
1910	 7.15375173921263E-02 
1911	 7.03371678734733E-02 
1912	 6.90021821424226E-02 
1913	 6.64377549101627E-02 
1914	 6.41930684382007E-02 
1915	 6.50501521361252E-02 
1916	 6.49487046374748E-02 
1917	 6.53530173021046E-02 
1918	 6.67526705926825E-02 
1919	 6.70723315081593E-02 
1920	 6.68819095833674E-02 
1921	 0.067312031904319 
1922	 6.85389142676066E-02 
1923	 6.86947215624543E-02 
1924	 6.87614687670905E-02 
1925	 6.84096965432867E-02 
1926	 0.066658873616903 
1927	 6.54973299866358E-02 
1928	 0.064173894733319 
1929	 6.28637996389804E-02 
1930	 6.32947512456789E-02 
1931	 6.26801274271287E-02 
1932	 6.14647502260316E-02 
1933	 6.15859720622537E-02 
1934	 6.16991001410375E-02 
1935	 6.18046758332935E-02 
1936	 6.18604892940536E-02 
1937	 6.25654667319399E-02 
1938	 6.26807124800308E-02 
1939	 6.23804292048731E-02 
1940	 6.28114157777746E-02 
1941	 6.44127301882805E-02 
1942	 6.52743901095713E-02 
1943	 6.62032756853859E-02 
1944	 6.74285177002079E-02 
1945	 6.76620194005845E-02 
1946	 6.70519413189341E-02 
1947	 6.69606545295641E-02 
1948	 6.65405286424623E-02 
1949	 6.58325261898924E-02 
1950	 6.62371697287077E-02 
1951	 6.67359895953939E-02 
1952	 6.74665695724378E-02 
1953	 6.79096501287026E-02 
1954	 6.89186956116799E-02 
1955	 6.93373760358098E-02 
1956	 6.94148214023239E-02 
1957	 6.95820393148144E-02 
1958	 6.95874495445079E-02 
1959	 6.85503901828381E-02 
1960	 6.81818718510079E-02 
1961	 0.068638105242428 
1962	 6.81625859874101E-02 
1963	 6.66491414296772E-02 
1964	 6.55840907916539E-02 
1965	 6.53555747958132E-02 
1966	 6.56604814290953E-02 
1967	 6.60057195050409E-02 
1968	 6.80812698643704E-02 
1969	 6.90902937023071E-02 
1970	 6.91554004129064E-02 
1971	 6.97429389324334E-02 
1972	 7.05743544353751E-02 
1973	 7.09611945209325E-02 
1974	 0.071076281519027 
1975	 7.18337533384917E-02 
1976	 0.071968801687751 
1977	 7.30399669193142E-02 
1978	 7.30235075007682E-02 
1979	 7.27380101453678E-02 
1980	 7.30027443156693E-02 
1981	 7.26897022967546E-02 
1982	 7.32672892444086E-02 
1983	 7.53397364818993E-02 
1984	 7.65981006718195E-02 
1985	 7.76837524738062E-02 
1986	 7.84605687040798E-02 
1987	 7.95677226642326E-02 
1988	 7.93727797988003E-02 
1989	 7.83159752783538E-02 
1990	 7.79320680481556E-02 
1991	 7.71915146849845E-02 
1992	 7.53364380407003E-02 
1993	 7.55740611818986E-02 
1994	 7.73092958983941E-02 
1995	 7.85721446037323E-02 
1996	 8.09226707279238E-02 
1997	 8.28329282853953E-02 
1998	 8.49115795208559E-02 
1999	 8.60016007587969E-02 
2000	 8.65475924376789E-02 
2001	 8.78571639039371E-02 
2002	 8.66799480423921E-02 
2003	 8.50031815143362E-02 
2004	 0.085570614664512 
2005	 8.51228845737718E-02 
2006	 8.52208583683872E-02 
2007	 8.60663643082167E-02 
2008	 8.70044497516606E-02 
2009	 8.81821211344904E-02 
2010	 8.91515912277853E-02 
2011	 9.09792831442994E-02 
2012	 9.19484973273798E-02 
2013	 9.24903470836912E-02 
2014	 9.18001583559738E-02 
2015	 9.11267203273982E-02 
2016	 0.092115230365111 
2017	 9.26795754970548E-02 
2018	 9.21029709162706E-02 
2019	 9.12701274971669E-02 
2020	 8.93323343202637E-02 
2021	 8.84082599338206E-02 
2022	 8.64559298773023E-02 
2023	 0.086863904261245 
2024	 8.91013049180648E-02 
2025	 9.12307976091318E-02 
2026	 9.59656218962663E-02 
2027	 9.84399088747597E-02 
2028	 0.100029454676094 
2029	 0.101175750194797 
2030	 0.102221697686724 
2031	 0.101986487720217 
2032	 0.101433299392218 
2033	 0.100715564647169 
2034	 9.93033765779855E-02 
2035	 9.52277945607787E-02 
2036	 9.48157575559518E-02 
2037	 9.59520291573826E-02 
2038	 9.69887152211609E-02 
2039	 0.101758335674402 
2040	 0.102865920779077 
2041	 0.101478526065484 
2042	 0.100544359285614 
2043	 9.98362611516378E-02 
2044	 9.81933716214914E-02 
2045	 0.098116114891425 
2046	 9.98308730791411E-02 
2047	 0.100346081531359 
2048	 0.1007584109966 
2049	 0.101898492419734 
2050	 0.102805016092534 
2051	 0.103985422562527 
2052	 0.106867325888097 
2053	 0.107131673352867 
2054	 0.106177439394224 
2055	 0.105759098081037 
2056	 0.103996082366462 
2057	 0.101797200896166 
2058	 0.10208631328182 
2059	 0.104364530735333 
2060	 0.106354796157837 
2061	 0.111085850437399 
2062	 0.11223936477834 
2063	 0.111166679926719 
2064	 0.111641620332104 
2065	 0.111410769278992 
2066	 0.111380628822331 
2067	 0.112298601426059 
2068	 0.113154819463375 
2069	 0.11318157672521 
2070	 0.113719053509299 
2071	 0.116654100818528 
2072	 0.116705388374445 
2073	 0.116095304061973 
2074	 0.113606330491728 
2075	 0.111700996143297 
2076	 0.107744637328407 
2077	 0.106334679630125 
2078	 0.106420701795136 
2079	 0.10610061183629 
2080	 0.106074826677964 
2081	 0.106514735783083 
2082	 0.106886345398084 
2083	 0.10794955550212 
2084	 0.110925159382002 
2085	 0.112724642634546 
2086	 0.114741530584904 
2087	 0.115233782825686 
2088	 0.117106432319243 
2089	 0.11813938844405 
2090	 0.119527930590711 
2091	 0.122043922148628 
2092	 0.12323250029556 
2093	 0.123744238766494 
2094	 0.123531964470506 
2095	 0.122632923812334 
2096	 0.121706056791459 
2097	 0.118918479882842 
2098	 0.118313924428856 
2099	 0.120029300879261 
2100	 0.119344133280441 
2101	 0.117252778589938 
2102	 0.116828246241682 
2103	 0.115094413796624 
2104	 0.114806196273681 
2105	 0.115939150604997 
2106	 0.120506606861489 
2107	 0.122161571958629 
2108	 0.123991094340286 
2109	 0.123653084642094 
2110	 0.121569159160991 
2111	 0.119700894075926 
2112	 0.115284073009535 
2113	 0.113874336226897 
2114	 0.113671624921095 
2115	 0.113417056784223 
2116	 0.11267736807613 
2117	 0.11500818456226 
2118	 0.119576268859423 
2119	 0.125262676918016 
2120	 0.129643278509424 
2121	 0.132247935585504 
2122	 0.131917618244228 
2123	 0.125340826633902 
2124	 0.124100018019612 
2125	 0.123693089001895 
2126	 0.123496264087199 
2127	 0.124508948511284 
2128	 0.125035971869161 
2129	 0.125115927951769 
2130	 0.126279234786433 
2131	 0.128000771713692 
2132	 0.130298283014192 
2133	 0.134344226487349 
2134	 0.137109141823272 
2135	 0.141452618488029 
2136	 0.142932363319882 
2137	 0.144294981170554 
2138	 0.141006259993661 
2139	 0.136799578883957 
2140	 0.128097483595706 
2141	 0.124782773692779 
2142	 0.119696235002186 
2143	 0.120684750764081 
2144	 0.129433548777588 
2145	 0.131947796110245 
2146	 0.135338529637131 
2147	 0.136679159533168 
2148	 0.132553955371746 
2149	 0.132380108399267 
2150	 0.134279520930499 
2151	 0.135242738601186 
2152	 0.138834137879975 
2153	 0.139310503306326 
2154	 0.134936178602587 
2155	 0.136012099527816 
2156	 0.134833423626227 
2157	 0.132694025700102 
2158	 0.131615692310428 
2159	 0.131274877225344 
2160	 0.131665334300431 
2161	 0.132630724545902 
2162	 0.132628308720158 
2163	 0.132687830955845 
2164	 0.133811241691254 
2165	 0.135230928318957 
2166	 0.135788177541 
2167	 0.138371986450103 
2168	 0.138352447269345 
2169	 0.134614821775545 
2170	 0.132822541710169 
2171	 0.130208063914323 
2172	 0.12981155735618 
2173	 0.129713532854002 
2174	 0.133348777106302 
2175	 0.135826287345214 
2176	 0.135872647773318 
2177	 0.136789872136818 
2178	 0.136783603002854 
2179	 0.136528686333725 
2180	 0.135838803820221 
2181	 0.136872379309709 
2182	 0.13813914603229 
2183	 0.138993329169823 
2184	 0.141051174763474 
2185	 0.142952800405397 
2186	 0.144351497756295 
2187	 0.145036460701778 
2188	 0.147856899126831 
2189	 0.147074103664258 
2190	 0.141104325086245 
2191	 0.139117564675454 
2192	 0.138311211051428 
2193	 0.136668989075566 
2194	 0.136055208662305 
2195	 0.136496445171921 
2196	 0.134409766782438 
2197	 0.131649658173197 
2198	 0.131052552156464 
2199	 0.132344445554812 
2200	 0.13174682507579 
2201	 0.129935424154182 
2202	 0.131231828848995 
2203	 0.133975634510057 
2204	 0.134541681604157 
2205	 0.136559244501828 
2206	 0.137494367405127 
2207	 0.135166525663787 
2208	 0.135618876348491 
2209	 0.139136735606686 
2210	 0.14072329457358 
2211	 0.141413774227731 
2212	 0.141912618423785 
2213	 0.140586868389997 
2214	 0.141146859948588 
2215	 0.145129117511942 
2216	 0.145444001465909 
2217	 0.143842401989534 
2218	 0.143850773794392 
2219	 0.138828852704875 
2220	 0.136555588770061 
2221	 0.136110994129289 
2222	 0.138078081528328 
2223	 0.138881481913894 
2224	 0.1403179655991 
2225	 0.141725952701462 
2226	 0.143782056510015 
2227	 0.144443027454436 
2228	 0.146613152618964 
2229	 0.145116427933705 
2230	 0.137817666450627 
2231	 0.136852984791813 
2232	 0.137515002123043 
2233	 0.137662775551123 
2234	 0.142964596981309 
2235	 0.143903209581698 
2236	 0.138798487905075 
2237	 0.138671238510137 
2238	 0.141679056756997 
2239	 0.142482638139427 
2240	 0.143420689163027 
2241	 0.146849982567274 
2242	 0.147411121766317 
2243	 0.141697033142819 
2244	 0.138786171029362 
2245	 0.133720169455761 
2246	 0.128654977540758 
2247	 0.128578680063227 
2248	 0.128195178606574 
2249	 0.131032044637013 
2250	 0.130785042858541 
2251	 0.129806040274515 
2252	 0.128996297940562 
2253	 0.126435237971838 
2254	 0.126086901889008 
2255	 0.127231085089896 
2256	 0.128720428592304 
2257	 0.133172299865918 
2258	 0.133482033421234 
2259	 0.131238246217613 
2260	 0.129935328145071 
2261	 0.127574460535061 
2262	 0.123821820992675 
2263	 0.118731296387609 
2264	 0.11587159667472 
2265	 0.110384686785641 
2266	 0.108379232017347 
2267	 0.110356277996848 
2268	 0.114958228949016 
2269	 0.112266237148439 
2270	 0.110270818747661 
2271	 0.108927692940643 
2272	 0.106941776769728 
2273	 0.111938637568022 
2274	 0.117138235652796 
2275	 0.116258425464592 
2276	 0.115001821954653 
2277	 0.11499332880167 
2278	 0.113172713139352 
2279	 0.111647547144763 
2280	 0.111187330608929 
2281	 0.111271174434027 
2282	 0.11049131579629 
2283	 0.110443608713418 
2284	 0.114423035632004 
2285	 0.114361382975884 
2286	 0.109700975634994 
2287	 0.107910288954117 
2288	 0.105571637466943 
2289	 0.104496035892216 
2290	 0.106621271840823 
2291	 0.106114160092845 
2292	 0.104328337495836 
2293	 0.103086867375229 
2294	 0.100493116858907 
2295	 9.91694410177665E-02 
2296	 9.88650142288228E-02 
2297	 9.93631591479877E-02 
2298	 0.100864616745084 
2299	 0.100816064885882 
2300	 0.100292459655389 
2301	 0.101007195998009 
2302	 9.99507164370257E-02 
2303	 0.100549005659214 
2304	 0.101967028155862 
2305	 0.102470371344349 
2306	 0.102200032418768 
2307	 0.102148528944002 
2308	 0.104001218507356 
2309	 0.106478329139435 
2310	 0.102947774308453 
2311	 0.100879764904369 
2312	 0.098758438116474 
2313	 9.19967985279284E-02 
2314	 9.09906880971976E-02 
2315	 8.99219278778843E-02 
2316	 8.89252691244228E-02 
2317	 8.76689696399996E-02 
2318	 8.68247896110417E-02 
2319	 8.49837254919165E-02 
2320	 8.70854103411046E-02 
2321	 9.38671974728177E-02 
2322	 9.60808305080825E-02 
2323	 0.10022252236356 
2324	 0.101668555688671 
2325	 9.64968347170724E-02 
2326	 0.092896127028149 
2327	 8.94943184478375E-02 
2328	 8.90007743264032E-02 
2329	 8.91697280908036E-02 
2330	 9.07696678449412E-02 
2331	 9.39281706450749E-02 
2332	 9.57335937054248E-02 
2333	 9.90492247573542E-02 
2334	 9.93664367550183E-02 
2335	 9.96887022921857E-02 
2336	 0.102407465226269 
2337	 0.103759303991329 
2338	 0.104197179615228 
2339	 0.106230045508958 
2340	 0.105882761206018 
2341	 0.104020483798683 
2342	 9.91780124436438E-02 
2343	 9.01098985103926E-02 
2344	 8.01463432566484E-02 
2345	 7.20111681115563E-02 
2346	 0.067857327346963 
2347	 7.11057905688037E-02 
2348	 7.67512751498773E-02 
2349	 0.083863981650346 
2350	 8.94142731992147E-02 
2351	 9.39498927417279E-02 
2352	 9.83840976744624E-02 
2353	 9.62574475852779E-02 
2354	 9.13712713486242E-02 
2355	 9.21347329557071E-02 
2356	 9.82868355680063E-02 
2357	 0.103069712080277 
2358	 0.106578769821602 
2359	 0.106740576045097 
2360	 0.102208326695186 
2361	 9.58875790530785E-02 
2362	 9.54773893802669E-02 
2363	 9.11063799736975E-02 
2364	 8.12045373476279E-02 
2365	 8.02544220970456E-02 
2366	 8.14384452036509E-02 
2367	 8.91362725885142E-02 
2368	 0.103813302346332 
2369	 0.10764160351364 
2370	 0.108677842176915 
2371	 0.10795006727808 
2372	 0.102194802293091 
2373	 0.105671670403332 
2374	 0.105956026920668 
2375	 9.88216055365728E-02 
2376	 9.68827631279131E-02 
2377	 9.43660161004344E-02 
2378	 9.02442905609611E-02 
2379	 0.09249012220709 
2380	 0.091348600490218 
2381	 8.05506219382473E-02 
2382	 6.92949105514297E-02 
2383	 4.72630432057045E-02 
2384	 2.56456989363732E-02 
2385	 2.16881711745046E-02 
2386	 3.34375303153749E-02 
2387	 3.26327878214056E-02 
2388	 4.02724779935802E-02 
2389	 4.61332339352592E-02 
2390	 4.41547548243428E-02 
2391	 5.09807305968023E-02 
2392	 7.47219372973906E-02 
2393	 7.52795268417575E-02 
2394	 5.35691085275325E-02 
2395	 5.00671057310255E-02 
2396	 4.90606329989674E-02 
2397	 4.93473112992995E-02 
2398	 6.20394530791506E-02 
2399	 6.93530679866347E-02 
2400	 6.44139347076798E-02 
2401	 6.85781640616513E-02 
2402	 8.31750344380628E-02 
2403	 9.15901996572761E-02 
2404	 0.10586238419225 
2405	 0.107949011332324 
2406	 0.102963885137254 
2407	 9.57485827562038E-02 
2408	 7.11775684717455E-02 
2409	 5.99936752028643E-02 
2410	 5.62362756591469E-02 
2411	 0.05188078183568 
2412	 5.04584921103273E-02 
2413	 5.04108174034065E-02 
2414	 4.99777343849657E-02 
2415	 5.41644862843428E-02 
2416	 6.77480524148568E-02 
2417	 7.36141343220664E-02 
2418	 8.45138523666668E-02 
2419	 8.39851923035766E-02 
2420	 6.76393701770183E-02 
2421	 6.22192248029168E-02 
2422	 4.69025697223999E-02 
2423	 3.88049380451155E-02 
2424	 4.30110349289632E-02 
2425	 4.62286573831155E-02 
2426	 5.86674217873947E-02 
2427	 6.87202684341707E-02 
2428	 7.44283796816433E-02 
2429	 8.07661642614599E-02 
2430	 9.06721165991088E-02 
2431	 8.97152284588403E-02 
2432	 9.12773173109691E-02 
2433	 8.37425141723152E-02 
2434	 4.46278093250633E-02 
2435	 3.60409193092348E-02 
2436	 4.11181449117605E-02 
2437	 3.56720036143174E-02 
2438	 5.23427472967009E-02 
2439	 5.70381933513086E-02 
2440	 4.36423374536723E-02 
2441	 3.37801833010071E-02 
2442	 0.021568119504986 
2443	 9.78626693770781E-03 
2444	 2.20418558144621E-02 
2445	 4.33384985270128E-02 
2446	 4.47514183982742E-02 
2447	 4.67068340706157E-02 
2448	 4.92628680510116E-02 
2449	 4.48617434383142E-02 
2450	 4.33185133832858E-02 
2451	 3.90330044869817E-02 
2452	 2.78943925709821E-02 
2453	 2.93651945653758E-02 
2454	 2.56316195726579E-02 
2455	 4.33391138737772E-02 
2456	 8.49519357309309E-02 
2457	 0.11237016041573 
2458	 0.135351509462846 
2459	 0.126556953217812 
2460	 9.44067100236706E-02 
2461	 5.66430238661975E-02 
2462	 2.85992218965521E-02 
2463	 3.82521127329668E-02 
2464	 2.64750296283705E-03 
2465	-5.32072860961707E-02 
2466	-4.83350063057224E-02 
2467	-4.34502619129613E-02 
2468	-9.13570934080521E-04 
2469	 8.15476516897652E-02 
2470	 8.75010665923695E-02 
2471	 4.63275095131423E-02 
2472	 1.10882827097117E-02 
2473	-1.77255148365979E-02 
2474	-2.04431589620207E-02 
2475	-0.001224418662379 
2476	 1.64802614424358E-02 
2477	 3.71264415245434E-03 
2478	-1.36449162685144E-02 
2479	-1.57569567049575E-02 
2480	-2.96038518488075E-02 
2481	-3.27219269209766E-02 
2482	-3.77921912514901E-02 
2483	-4.61393924006033E-02 
2484	-0.062346913305452 
2485	-9.85415074667696E-02 
2486	-9.35350857356747E-02 
2487	-0.091046381154819 
2488	-7.31917110611628E-02 
2489	-2.99218950269492E-02 
2490	-3.57897807127397E-02 
2491	-5.68497962081561E-02 
2492	-0.059700520823128 
2493	-7.64469770752303E-02 
2494	-0.108134249075602 
2495	-9.60928721085232E-02 
2496	-9.01263358865618E-02 
2497	-7.93983418778712E-02 
2498	 8.2796047647503E-03 
2499	 0.038550434788312 
2500	 5.32398662941001E-02 
