Wavelength	MCL_ARB_055_nnn_210407_L00000.asd
350	 1.38338826039922E-02 
351	 1.73096333387838E-03 
352	 2.53917322072122E-02 
353	-0.060410629020166 
354	 1.80778490321817E-02 
355	 1.60432594132186E-02 
356	-0.083979858546317 
357	 6.55083904211682E-02 
358	-6.85106823357275E-03 
359	-0.116462052971617 
360	-0.058663095919148 
361	 0.106386694166946 
362	 0.110283258673392 
363	 1.02827610847417E-02 
364	-1.23385500783197E-02 
365	 2.83595638060518E-02 
366	 3.70558983493819E-02 
367	 1.46660119027835E-02 
368	 6.11097173169699E-02 
369	 6.65487760616005E-02 
370	 0.055288095105925 
371	 5.29554982723508E-02 
372	 1.49925220804899E-02 
373	 8.07310808461262E-03 
374	 3.43812408241524E-02 
375	 6.42240023631662E-02 
376	 9.36334746224727E-02 
377	 9.00534685116774E-02 
378	 5.99338533568947E-02 
379	 5.44200332046237E-02 
380	 5.94006059601522E-02 
381	 6.61951922742223E-02 
382	 7.10290266516094E-02 
383	 8.40879001149399E-02 
384	 9.22102480053748E-02 
385	 9.41969154853623E-02 
386	 0.092021281883025 
387	 6.81413879498725E-02 
388	 5.77325967059153E-02 
389	 0.069263813069645 
390	 7.82092662293915E-02 
391	 8.19197471852627E-02 
392	 7.35468731440681E-02 
393	 5.66425586417549E-02 
394	 6.14936262781978E-02 
395	 6.85453919003157E-02 
396	 6.34676284130994E-02 
397	 4.35376269996292E-02 
398	 5.65847992455166E-02 
399	 7.13235557884872E-02 
400	 7.32824732220246E-02 
401	 7.34351928711533E-02 
402	 7.68559708627189E-02 
403	 7.25915600508427E-02 
404	 6.08916973030614E-02 
405	 8.03444777293981E-02 
406	 8.12082653210039E-02 
407	 7.23478646444942E-02 
408	 8.07117640858351E-02 
409	 7.95171909660162E-02 
410	 8.40949446955967E-02 
411	 9.30938053234663E-02 
412	 8.54152491513236E-02 
413	 7.42829316243747E-02 
414	 7.40228320827349E-02 
415	 0.085980477797108 
416	 7.82984061859764E-02 
417	 7.76820181449853E-02 
418	 8.31425760787488E-02 
419	 8.25920218690113E-02 
420	 0.081534603494045 
421	 7.75735692320154E-02 
422	 7.43663954553315E-02 
423	 0.083258565167027 
424	 8.45513837628559E-02 
425	 8.52923884844567E-02 
426	 9.09291107342955E-02 
427	 8.20013707130612E-02 
428	 0.082786425499036 
429	 9.07446049501763E-02 
430	 9.05823779587545E-02 
431	 9.12049423722976E-02 
432	 9.15394973762105E-02 
433	 9.08817118804159E-02 
434	 9.03416954991604E-02 
435	 9.05957999827436E-02 
436	 0.089273666715148 
437	 0.085803681702176 
438	 8.88789269967292E-02 
439	 9.44635496409109E-02 
440	 9.71760463955643E-02 
441	 9.24607301136004E-02 
442	 9.44388305795682E-02 
443	 0.093920774614845 
444	 8.84573001807081E-02 
445	 9.45427461408672E-02 
446	 9.72205177420072E-02 
447	 9.64347358102587E-02 
448	 9.63703205874126E-02 
449	 9.68629204723394E-02 
450	 9.62015838204272E-02 
451	 9.54048679388729E-02 
452	 0.097698912273829 
453	 9.62989945086035E-02 
454	 9.59504261561076E-02 
455	 9.91205704566906E-02 
456	 9.71090581397559E-02 
457	 9.70561529434684E-02 
458	 9.77846424251548E-02 
459	 9.58020303528255E-02 
460	 9.91068873546492E-02 
461	 0.100560556559138 
462	 9.80522243771844E-02 
463	 9.71701787918952E-02 
464	 0.098212279115648 
465	 0.098876712556865 
466	 9.77437370477298E-02 
467	 9.89523318860724E-02 
468	 0.100134360231573 
469	 9.98779935463682E-02 
470	 0.097829761945448 
471	 9.70217332606414E-02 
472	 9.72246679225478E-02 
473	 9.77394268148674E-02 
474	 9.79674411801136E-02 
475	 9.71130046266421E-02 
476	 9.62022763253824E-02 
477	 9.65185219412286E-02 
478	 9.74324911577184E-02 
479	 9.81828284478908E-02 
480	 9.85420060844594E-02 
481	 9.87664847672931E-02 
482	 9.87743246783911E-02 
483	 9.82919904043101E-02 
484	 9.74238044685409E-02 
485	 9.73980731155562E-02 
486	 9.63448756523592E-02 
487	 9.53019600978025E-02 
488	 0.096247021865592 
489	 9.75692386864253E-02 
490	 9.79762266433379E-02 
491	 9.75286677533591E-02 
492	 0.097956356000296 
493	 9.89542111531685E-02 
494	 9.89407172697581E-02 
495	 0.097556213606584 
496	 0.100257156306189 
497	 0.101477552504064 
498	 0.100623434894481 
499	 0.100744379899912 
500	 0.101800060797802 
501	 0.103023334273378 
502	 0.103873308784746 
503	 0.104594496401463 
504	 0.104460747369015 
505	 0.104134080274867 
506	 0.104663859747705 
507	 0.106107144267577 
508	 0.10794831817507 
509	 0.109310040070948 
510	 0.109107479777942 
511	 0.111058372024885 
512	 0.113167375617746 
513	 0.113697826044552 
514	 0.115662201307622 
515	 0.117439786645611 
516	 0.118850349823475 
517	 0.12051407350429 
518	 0.121798022668937 
519	 0.124206222676865 
520	 0.12763855330858 
521	 0.12884804703318 
522	 0.130838386791238 
523	 0.133320554847261 
524	 0.135239761288417 
525	 0.136979080296461 
526	 0.139768815898538 
527	 0.14281343075236 
528	 0.143607414694123 
529	 0.144290700526489 
530	 0.144938320625348 
531	 0.145625641005076 
532	 0.147596130448001 
533	 0.149464509881083 
534	 0.150730531956284 
535	 0.151508455682155 
536	 0.152817601247603 
537	 0.152610907036047 
538	 0.151419378378456 
539	 0.154129481808052 
540	 0.155393350606664 
541	 0.155093538729103 
542	 0.154769026246213 
543	 0.155926104243511 
544	 0.15720920370309 
545	 0.157690132321511 
546	 0.157035128267567 
547	 0.157157354877508 
548	 0.15744166982894 
549	 0.157399636297927 
550	 0.158184178093338 
551	 0.15827245058611 
552	 0.157937014346304 
553	 0.158086443952948 
554	 0.157403224124048 
555	 0.156883495247937 
556	 0.156829317164582 
557	 0.156276174709991 
558	 0.154849110913471 
559	 0.153757417648391 
560	 0.153835526663163 
561	 0.152367001936502 
562	 0.150992744414151 
563	 0.15032298866105 
564	 0.149943134044506 
565	 0.148938067196489 
566	 0.147419512058991 
567	 0.145750504972887 
568	 0.144361547600121 
569	 0.143210635172165 
570	 0.142421892676296 
571	 0.141978724227208 
572	 0.140594759169752 
573	 0.138899296627803 
574	 0.13752777244528 
575	 0.136893700141265 
576	 0.135076154988316 
577	 0.133035614892924 
578	 0.132067649674854 
579	 0.131416701848516 
580	 0.130661902538313 
581	 0.129873316535473 
582	 0.129438074744058 
583	 0.128479480457219 
584	 0.127555264795277 
585	 0.12697687406028 
586	 0.125943414778449 
587	 0.125364396259521 
588	 0.125063811380602 
589	 0.124569188938273 
590	 0.124567671542961 
591	 0.124356930711006 
592	 0.123752309888208 
593	 0.123323354037981 
594	 0.12320945235652 
595	 0.123033657755131 
596	 0.122502630869415 
597	 0.122139423612247 
598	 0.121589850291726 
599	 0.12126566913046 
600	 0.12185358946029 
601	 0.120869794858917 
602	 0.119842311192684 
603	 0.119751676081078 
604	 0.119367364889838 
605	 0.119200415329492 
606	 0.118616431183885 
607	 0.117048332558726 
608	 0.116504174672546 
609	 0.116441406113302 
610	 0.116122207160871 
611	 0.114837157719938 
612	 0.114191557537439 
613	 0.11365044651932 
614	 0.112699980817054 
615	 0.112512968580326 
616	 0.112107676210857 
617	 0.111241374077835 
618	 0.110199877533747 
619	 0.109678456002257 
620	 0.109401307529288 
621	 0.109002324234951 
622	 0.108120064514627 
623	 0.108421116836669 
624	 0.108805148522757 
625	 0.107928384293493 
626	 0.107943899035256 
627	 0.10784297847037 
628	 0.107367292861626 
629	 0.107085003924826 
630	 0.107433673600343 
631	 0.107719272425589 
632	 0.107372103027723 
633	 0.106574935417669 
634	 0.107033057722576 
635	 0.10755225882105 
636	 0.106018598149048 
637	 0.105090910116917 
638	 0.104631378782891 
639	 0.104512256396426 
640	 0.105018071038563 
641	 0.104228640143196 
642	 0.10280563500969 
643	 0.101918249599484 
644	 0.101749167296413 
645	 0.100754356589739 
646	 9.94399103224923E-02 
647	 9.95970093304154E-02 
648	 9.89041884148788E-02 
649	 9.78330410107153E-02 
650	 9.71346717705886E-02 
651	 9.73112365970992E-02 
652	 9.74676908709791E-02 
653	 9.69127821017104E-02 
654	 9.56056445840626E-02 
655	 9.64757910772343E-02 
656	 9.63035552287519E-02 
657	 9.45067890379933E-02 
658	 9.35162142944662E-02 
659	 9.32271348427444E-02 
660	 9.29451315673147E-02 
661	 9.22326690599545E-02 
662	 9.18202519201424E-02 
663	 9.13611241452237E-02 
664	 9.08764466171822E-02 
665	 9.05025231312351E-02 
666	 8.99006761079533E-02 
667	 8.89707516547757E-02 
668	 8.79725816745329E-02 
669	 8.75914133145194E-02 
670	 8.81123322831728E-02 
671	 8.85049144498844E-02 
672	 8.80111348519227E-02 
673	 8.82285504138021E-02 
674	 8.78552757074106E-02 
675	 8.75318345472828E-02 
676	 8.89080259553569E-02 
677	 8.95180806631519E-02 
678	 8.92490592782771E-02 
679	 8.89072928433215E-02 
680	 9.03785277079065E-02 
681	 9.12532560458365E-02 
682	 9.17223884632007E-02 
683	 9.26833101391684E-02 
684	 9.40383106440569E-02 
685	 9.56889114845351E-02 
686	 9.72006026516062E-02 
687	 9.80100869676228E-02 
688	 0.100103505939996 
689	 0.102141494559376 
690	 0.103639334670803 
691	 0.107333137222361 
692	 0.1112539809029 
693	 0.115257814330283 
694	 0.119685057364982 
695	 0.12366018269296 
696	 0.128269506618104 
697	 0.133928046789077 
698	 0.140257764655009 
699	 0.147434209656207 
700	 0.154920780611171 
701	 0.162458298631527 
702	 0.170731785232961 
703	 0.179009604856903 
704	 0.186889211392715 
705	 0.19435593534559 
706	 0.202944656251347 
707	 0.212203500981884 
708	 0.221592391728469 
709	 0.230738873090483 
710	 0.240218805648824 
711	 0.249866343012931 
712	 0.259489922781747 
713	 0.26932509243557 
714	 0.278481820728976 
715	 0.28769027286056 
716	 0.29803456352962 
717	 0.307529646571289 
718	 0.317001587555054 
719	 0.326890925173406 
720	 0.336884103942579 
721	 0.346796903004615 
722	 0.356401466672976 
723	 0.36558717764823 
724	 0.374526573237098 
725	 0.382709096895955 
726	 0.390853148174601 
727	 0.399913529517491 
728	 0.407856892866143 
729	 0.414964665741864 
730	 0.421846003951003 
731	 0.429165836739637 
732	 0.435408234231924 
733	 0.441158823251767 
734	 0.446994539367754 
735	 0.45193470328968 
736	 0.456814268020994 
737	 0.461603564208792 
738	 0.46587319234574 
739	 0.469778388932939 
740	 0.473041543695575 
741	 0.476045953036054 
742	 0.47989575776784 
743	 0.482764747855076 
744	 0.485070273357116 
745	 0.487327696692594 
746	 0.488859802850266 
747	 0.490627887532694 
748	 0.49259574486814 
749	 0.494263835159732 
750	 0.495385051238366 
751	 0.49632079486539 
752	 0.497201825705851 
753	 0.497899002850084 
754	 0.498960743519761 
755	 0.499786467498232 
756	 0.500065655890744 
757	 0.500647701369463 
758	 0.500887671161291 
759	 0.501167546124735 
760	 0.501829619255651 
761	 0.501081929216626 
762	 0.501017617899286 
763	 0.501750460262553 
764	 0.501717076071382 
765	 0.501711711478455 
766	 0.501582476438872 
767	 0.50145580169818 
768	 0.502193813264969 
769	 0.502149389123625 
770	 0.501739521493074 
771	 0.501761895443408 
772	 0.501979616490324 
773	 0.501815033899364 
774	 0.501605183136342 
775	 0.502025599537242 
776	 0.501532749855164 
777	 0.501317015707182 
778	 0.50153552549972 
779	 0.50074474253407 
780	 0.500711109256829 
781	 0.500993796958496 
782	 0.500928199511393 
783	 0.500521233794206 
784	 0.50088668966863 
785	 0.501429215137704 
786	 0.501095256874084 
787	 0.500540494886852 
788	 0.500362266242956 
789	 0.500499208667016 
790	 0.500360511374455 
791	 0.500197649952561 
792	 0.500076807530416 
793	 0.500076500273938 
794	 0.500339381955351 
795	 0.500271135082204 
796	 0.500065740048307 
797	 0.500073877199312 
798	 0.500432257153857 
799	 0.50025003232928 
800	 0.499739933754864 
801	 0.499631516533326 
802	 0.499900323174595 
803	 0.499848373278813 
804	 0.499565331536722 
805	 0.499879734836516 
806	 0.499772716568056 
807	 0.499598638869181 
808	 0.499638136925473 
809	 0.499610057600418 
810	 0.499334750330548 
811	 0.499102565577159 
812	 0.499176985642795 
813	 0.499258060588141 
814	 0.498880736199839 
815	 0.498597191022415 
816	 0.499205195312425 
817	 0.499476799767532 
818	 0.49951068654399 
819	 0.499394190402883 
820	 0.499117092192295 
821	 0.498697487292733 
822	 0.498336477168706 
823	 0.498209510318994 
824	 0.498399264139843 
825	 0.498698869873452 
826	 0.49879903431292 
827	 0.498618545336266 
828	 0.498836362327096 
829	 0.498627797268159 
830	 0.498049538675564 
831	 0.497587560201255 
832	 0.49769844000771 
833	 0.497622954921009 
834	 0.497500643395622 
835	 0.498056339824611 
836	 0.49842852009659 
837	 0.498129744663376 
838	 0.497344723876363 
839	 0.497006643464878 
840	 0.497466506627867 
841	 0.497850140511008 
842	 0.497543503922366 
843	 0.497016110403903 
844	 0.496914482331642 
845	 0.497233015938641 
846	 0.497646990733635 
847	 0.4976632938629 
848	 0.497644185449703 
849	 0.497785294498561 
850	 0.497959231670885 
851	 0.496729907274238 
852	 0.496637662323551 
853	 0.497273658521739 
854	 0.496205064082882 
855	 0.496240180388383 
856	 0.497064446147424 
857	 0.497649357500753 
858	 0.496773078231263 
859	 0.496660586580677 
860	 0.49717394183957 
861	 0.497555070758604 
862	 0.496843681974473 
863	 0.496494200248644 
864	 0.49622342812085 
865	 0.495709193120177 
866	 0.495962086829931 
867	 0.495959725890025 
868	 0.495994489302111 
869	 0.496440856875081 
870	 0.495828764724487 
871	 0.49558000577655 
872	 0.495699761950509 
873	 0.495576135155732 
874	 0.496475541182598 
875	 0.496325262940181 
876	 0.495288476468506 
877	 0.495323924793935 
878	 0.495658881539273 
879	 0.495566477331455 
880	 0.495156343042033 
881	 0.495387615211532 
882	 0.495250038944023 
883	 0.495001222554318 
884	 0.495211667779155 
885	 0.496498580248331 
886	 0.495824202295634 
887	 0.495060177637144 
888	 0.495389651687483 
889	 0.493978335762577 
890	 0.493512715051814 
891	 0.493906050472585 
892	 0.494412583821483 
893	 0.495030082239064 
894	 0.494635043167547 
895	 0.493851045462444 
896	 0.493702063389292 
897	 0.49393484687185 
898	 0.494217889837355 
899	 0.494411236630083 
900	 0.494416231795914 
901	 0.493722140365585 
902	 0.493216723517828 
903	 0.493455752589658 
904	 0.494297411516368 
905	 0.493303591253059 
906	 0.493022999473213 
907	 0.493135192861932 
908	 0.491520700620822 
909	 0.492136150353294 
910	 0.49284628038291 
911	 0.492464107533443 
912	 0.491448761742141 
913	 0.490721427080284 
914	 0.490931678643295 
915	 0.491793017485443 
916	 0.492118375263072 
917	 0.49178976301109 
918	 0.491903772218915 
919	 0.492381321144476 
920	 0.491497827834048 
921	 0.490116608493631 
922	 0.490019863602153 
923	 0.491242132511732 
924	 0.491126240416001 
925	 0.489826138723093 
926	 0.490057740778173 
927	 0.491889863146327 
928	 0.490304138137972 
929	 0.489730670105087 
930	 0.489512007524509 
931	 0.488804720170815 
932	 0.488584257691909 
933	 0.488964478566088 
934	 0.488871602661624 
935	 0.487909026247605 
936	 0.487615806540289 
937	 0.488103433171827 
938	 0.488271552584114 
939	 0.487493159623274 
940	 0.48690593188275 
941	 0.486111890234323 
942	 0.486358876912779 
943	 0.487313071791234 
944	 0.484244255227942 
945	 0.484386723511885 
946	 0.4862864457529 
947	 0.486857081601371 
948	 0.485543902507811 
949	 0.482419597058651 
950	 0.481020199383563 
951	 0.482935814857354 
952	 0.483458685292907 
953	 0.479751500467117 
954	 0.476953161455758 
955	 0.478884180536132 
956	 0.480935628336604 
957	 0.480771073361718 
958	 0.479433959151042 
959	 0.478496961711166 
960	 0.478055181684974 
961	 0.476595045132154 
962	 0.475687788609705 
963	 0.476339205319213 
964	 0.476804569724573 
965	 0.475460138664963 
966	 0.474982235857453 
967	 0.476377831044018 
968	 0.475724787970713 
969	 0.474743201894185 
970	 0.474177268402771 
971	 0.474322208619422 
972	 0.474966560934011 
973	 0.472894217041781 
974	 0.471111258512283 
975	 0.471961021607002 
976	 0.474469123930643 
977	 0.473429732797778 
978	 0.473823443207368 
979	 0.476192197935394 
980	 0.474034538500664 
981	 0.472823918918553 
982	 0.473419572177077 
983	 0.474787492256036 
984	 0.474891602328749 
985	 0.474048592410863 
986	 0.47280771971323 
987	 0.471427273131384 
988	 0.470540752568258 
989	 0.476214214902574 
990	 0.476926090117609 
991	 0.473873284946358 
992	 0.475787702006984 
993	 0.472358686177518 
994	 0.471137823706326 
995	 0.471590120081303 
996	 0.469866561248192 
997	 0.472219930443955 
998	 0.471123251721688 
999	 0.470479148822443 
1000	 0.475411149753607 
1001	 0.475528917862062 
1002	 0.476385796062066 
1003	 0.476693025343303 
1004	 0.477042304326159 
1005	 0.477041391235613 
1006	 0.476314881856033 
1007	 0.476399875687418 
1008	 0.475737547169309 
1009	 0.474895343498771 
1010	 0.475550206417325 
1011	 0.475964688137344 
1012	 0.476300474838826 
1013	 0.476701738631253 
1014	 0.477168612164762 
1015	 0.476974822891233 
1016	 0.477415021285583 
1017	 0.477681944231513 
1018	 0.477606387258001 
1019	 0.477854550354584 
1020	 0.477916781383229 
1021	 0.478232793250944 
1022	 0.478186336133649 
1023	 0.478657271967166 
1024	 0.479258354100614 
1025	 0.480123187498115 
1026	 0.479886903698858 
1027	 0.480222927320237 
1028	 0.480985435408179 
1029	 0.48090883399284 
1030	 0.480582245962108 
1031	 0.480668240236345 
1032	 0.48095182275381 
1033	 0.480327640587891 
1034	 0.480472319254605 
1035	 0.480959086184941 
1036	 0.481600256144756 
1037	 0.481528750950579 
1038	 0.48138628460705 
1039	 0.482353878978878 
1040	 0.481824082935599 
1041	 0.482268955802659 
1042	 0.483920470247673 
1043	 0.4829513008167 
1044	 0.482139999221622 
1045	 0.482374172864097 
1046	 0.480908424653926 
1047	 0.480473127004476 
1048	 0.480508422418006 
1049	 0.480622079859248 
1050	 0.48109574623509 
1051	 0.482454364309013 
1052	 0.483946645414502 
1053	 0.484128294606171 
1054	 0.483736109066921 
1055	 0.483752467652987 
1056	 0.483408023669736 
1057	 0.484283863576838 
1058	 0.485334274065402 
1059	 0.484746330879828 
1060	 0.483950173030762 
1061	 0.483512469569295 
1062	 0.482467506606656 
1063	 0.482255660531632 
1064	 0.482816558358786 
1065	 0.483334668841298 
1066	 0.483353886409526 
1067	 0.483437426987638 
1068	 0.483284911460446 
1069	 0.482931630620432 
1070	 0.483125853006768 
1071	 0.482945868139983 
1072	 0.482832492996328 
1073	 0.482764163312594 
1074	 0.482692603050516 
1075	 0.482547269005672 
1076	 0.482642509281235 
1077	 0.482841110640596 
1078	 0.482931338668644 
1079	 0.483660139667464 
1080	 0.483716379745076 
1081	 0.48323289873473 
1082	 0.483119065477876 
1083	 0.482926222555932 
1084	 0.482787857279308 
1085	 0.482611968023193 
1086	 0.482591378362762 
1087	 0.482642400748266 
1088	 0.482776692052646 
1089	 0.482544916696856 
1090	 0.482175469358961 
1091	 0.482169281906432 
1092	 0.481926894730689 
1093	 0.481799365630802 
1094	 0.482656451494207 
1095	 0.483336233286573 
1096	 0.483392751748051 
1097	 0.482593154814954 
1098	 0.482277877103345 
1099	 0.481729625374509 
1100	 0.481229631801251 
1101	 0.481012071956659 
1102	 0.480816738569078 
1103	 0.480098843929016 
1104	 0.479799151326904 
1105	 0.480018399857978 
1106	 0.479989638587532 
1107	 0.479638797196056 
1108	 0.479630980455343 
1109	 0.479707958073565 
1110	 0.479516774759439 
1111	 0.479508727499942 
1112	 0.47995588142527 
1113	 0.479800298914036 
1114	 0.479187928045945 
1115	 0.478839261895719 
1116	 0.478372534107792 
1117	 0.478023955850366 
1118	 0.477980658126922 
1119	 0.477733973721969 
1120	 0.477344192673839 
1121	 0.476811262438002 
1122	 0.476773342460319 
1123	 0.476317620497964 
1124	 0.475934786783936 
1125	 0.475841762104882 
1126	 0.475228522373755 
1127	 0.47407523434011 
1128	 0.473387197998296 
1129	 0.472737670261365 
1130	 0.47201851389191 
1131	 0.471580688185816 
1132	 0.470902084418885 
1133	 0.469762917155735 
1134	 0.469134684568028 
1135	 0.468690608685679 
1136	 0.467509639252203 
1137	 0.466488890810494 
1138	 0.465437398486601 
1139	 0.464273899183037 
1140	 0.463141054680968 
1141	 0.461622491717281 
1142	 0.459722024663127 
1143	 0.458117859564876 
1144	 0.456090993380032 
1145	 0.454542136099 
1146	 0.453643924941238 
1147	 0.452382880893249 
1148	 0.450952124039828 
1149	 0.449895115200839 
1150	 0.448415893112852 
1151	 0.446500016190385 
1152	 0.445190166138229 
1153	 0.443950242413232 
1154	 0.442866775110544 
1155	 0.442297356503627 
1156	 0.441333990528818 
1157	 0.440081074847581 
1158	 0.439144065152218 
1159	 0.438201595357003 
1160	 0.437403327501056 
1161	 0.437040278814581 
1162	 0.436389789967548 
1163	 0.435583807775667 
1164	 0.434782348753282 
1165	 0.434117168689647 
1166	 0.433412245245974 
1167	 0.43275693910598 
1168	 0.432152452677734 
1169	 0.431742138595993 
1170	 0.431419921157252 
1171	 0.431063365842555 
1172	 0.430934572858557 
1173	 0.430688342457807 
1174	 0.430156129145386 
1175	 0.429916614195739 
1176	 0.43009798277552 
1177	 0.429914548320895 
1178	 0.429635932264066 
1179	 0.429404349954363 
1180	 0.428945090948704 
1181	 0.42809873754012 
1182	 0.427581693120156 
1183	 0.427220718944492 
1184	 0.426638931618544 
1185	 0.425871967319382 
1186	 0.425412419535008 
1187	 0.424852533914738 
1188	 0.424563520700048 
1189	 0.424788247699296 
1190	 0.424733361140414 
1191	 0.424656941966988 
1192	 0.424541364151635 
1193	 0.42437462472981 
1194	 0.424096063207225 
1195	 0.423887466521102 
1196	 0.423576202390183 
1197	 0.423555184354234 
1198	 0.423791545358792 
1199	 0.423721862680994 
1200	 0.423657366590048 
1201	 0.423620512189119 
1202	 0.423285105034729 
1203	 0.423231681048484 
1204	 0.423518750014151 
1205	 0.423631400650789 
1206	 0.423698815976885 
1207	 0.423774239528854 
1208	 0.423801407597546 
1209	 0.423886274649802 
1210	 0.423914551025441 
1211	 0.423842846804498 
1212	 0.424052978705111 
1213	 0.424322484907585 
1214	 0.424703470051061 
1215	 0.425434502962821 
1216	 0.425861569624422 
1217	 0.426144409545179 
1218	 0.426528551503912 
1219	 0.426767594726055 
1220	 0.427214751924252 
1221	 0.427961097192959 
1222	 0.428475295019858 
1223	 0.428853855897799 
1224	 0.429493479616867 
1225	 0.429792836394869 
1226	 0.429774771595751 
1227	 0.430124287272199 
1228	 0.430617240891565 
1229	 0.430853675619369 
1230	 0.431207790095451 
1231	 0.431356536043326 
1232	 0.430913565070423 
1233	 0.431121226699791 
1234	 0.431737962032042 
1235	 0.432140569394479 
1236	 0.4328726731046 
1237	 0.433323650753838 
1238	 0.433516781265631 
1239	 0.433648431185545 
1240	 0.433876453991937 
1241	 0.434048310273662 
1242	 0.434268469356903 
1243	 0.434518844891921 
1244	 0.434727132932056 
1245	 0.434939354048478 
1246	 0.435147079370782 
1247	 0.435306358096142 
1248	 0.435519264095194 
1249	 0.435846863950301 
1250	 0.435994071372108 
1251	 0.436062759169791 
1252	 0.436128342919999 
1253	 0.436003213290691 
1254	 0.436043026243105 
1255	 0.436071968759862 
1256	 0.436314019728412 
1257	 0.436833507977347 
1258	 0.436924389276635 
1259	 0.437057371464165 
1260	 0.437119613670933 
1261	 0.437269289410543 
1262	 0.437339771692613 
1263	 0.437463742180915 
1264	 0.437819791912844 
1265	 0.437920115719035 
1266	 0.43775710075211 
1267	 0.437785622343105 
1268	 0.437770537689279 
1269	 0.437791837159239 
1270	 0.438201085235294 
1271	 0.438149730593956 
1272	 0.437679129558592 
1273	 0.437437207090625 
1274	 0.437220115648602 
1275	 0.436695237012813 
1276	 0.436641401796041 
1277	 0.437106527084453 
1278	 0.437157434534302 
1279	 0.437344435440482 
1280	 0.437085595795544 
1281	 0.436333003136154 
1282	 0.435952247187776 
1283	 0.435373599618374 
1284	 0.435092679412707 
1285	 0.435293075362626 
1286	 0.435127930872367 
1287	 0.434861392410571 
1288	 0.43461655934873 
1289	 0.434185567505858 
1290	 0.433981936605915 
1291	 0.433757601977765 
1292	 0.43309993396902 
1293	 0.432820404178548 
1294	 0.432324924462719 
1295	 0.431903780120476 
1296	 0.431688916629882 
1297	 0.431293009962749 
1298	 0.43079324595892 
1299	 0.43025632539514 
1300	 0.429544243677787 
1301	 0.42902641091606 
1302	 0.428631607486269 
1303	 0.428009297433636 
1304	 0.42740241770393 
1305	 0.426821953611968 
1306	 0.426151900163237 
1307	 0.425261787146265 
1308	 0.424787041559865 
1309	 0.424132395192584 
1310	 0.423018691845732 
1311	 0.42204934397461 
1312	 0.421224807109213 
1313	 0.420433582457437 
1314	 0.419506895569895 
1315	 0.418692617241305 
1316	 0.417820302517306 
1317	 0.416622875627616 
1318	 0.415674895850186 
1319	 0.415084606279486 
1320	 0.414183437590192 
1321	 0.413120813985569 
1322	 0.412194630636612 
1323	 0.41128035472247 
1324	 0.410222310910943 
1325	 0.409148411677888 
1326	 0.408146650379858 
1327	 0.406853552698939 
1328	 0.405345744621852 
1329	 0.403704904518808 
1330	 0.402050195759039 
1331	 0.400525055950082 
1332	 0.398916919475313 
1333	 0.397401941839147 
1334	 0.396051008061903 
1335	 0.394640964195655 
1336	 0.393247441564172 
1337	 0.391823972223712 
1338	 0.390369280910485 
1339	 0.388947189358841 
1340	 0.387487245793473 
1341	 0.386025655850115 
1342	 0.384530609066256 
1343	 0.383224159938977 
1344	 0.382083615129342 
1345	 0.38068041783651 
1346	 0.379473663998793 
1347	 0.378292515236909 
1348	 0.376846521530308 
1349	 0.375605033921855 
1350	 0.374351726936889 
1351	 0.372957096571895 
1352	 0.371487913393012 
1353	 0.369846366156142 
1354	 0.368307158575846 
1355	 0.36664445858292 
1356	 0.365297273166622 
1357	 0.364198969748338 
1358	 0.362871399303583 
1359	 0.361648325453968 
1360	 0.360232197050422 
1361	 0.358751196301533 
1362	 0.357183828117947 
1363	 0.355497455277868 
1364	 0.353830716903144 
1365	 0.352058712127761 
1366	 0.350171248417103 
1367	 0.348603767695444 
1368	 0.347059705523039 
1369	 0.345711055287341 
1370	 0.344371950465432 
1371	 0.342504761248474 
1372	 0.340461522319677 
1373	 0.338120010519808 
1374	 0.335333223506065 
1375	 0.332685668170282 
1376	 0.330108056795266 
1377	 0.32715283276372 
1378	 0.32412361805969 
1379	 0.320652220049464 
1380	 0.316668942718221 
1381	 0.312611247183776 
1382	 0.308335260254861 
1383	 0.30392265909088 
1384	 0.299194708761519 
1385	 0.294714255141066 
1386	 0.2902179663205 
1387	 0.284995935483081 
1388	 0.279951072872789 
1389	 0.274538849500079 
1390	 0.268987895287729 
1391	 0.263751456432049 
1392	 0.257919863357672 
1393	 0.25222866308946 
1394	 0.246659606981021 
1395	 0.240692895008732 
1396	 0.235193902747995 
1397	 0.230133684995166 
1398	 0.224862037592462 
1399	 0.219579951554433 
1400	 0.214424602714009 
1401	 0.209213585631137 
1402	 0.204383679031738 
1403	 0.199689639219608 
1404	 0.195210919898763 
1405	 0.191138891831651 
1406	 0.187022594107309 
1407	 0.18273294681852 
1408	 0.179237068774413 
1409	 0.175909064273848 
1410	 0.172398765971049 
1411	 0.169561882468324 
1412	 0.166644443204723 
1413	 0.163535526702235 
1414	 0.160738706469007 
1415	 0.15812916403417 
1416	 0.155796518365148 
1417	 0.153759338476554 
1418	 0.152053212256904 
1419	 0.1503001686645 
1420	 0.148574697461766 
1421	 0.146919218931247 
1422	 0.145282912886666 
1423	 0.143925931049401 
1424	 0.142655384939323 
1425	 0.141611601645908 
1426	 0.141047957408462 
1427	 0.140158816181893 
1428	 0.139220304841033 
1429	 0.138359109498431 
1430	 0.137420234234973 
1431	 0.136474988191204 
1432	 0.135627860600877 
1433	 0.134655741634617 
1434	 0.133674795459933 
1435	 0.132750123078907 
1436	 0.13201830007436 
1437	 0.131692301504919 
1438	 0.131305888605958 
1439	 0.130853317280254 
1440	 0.130581172050881 
1441	 0.130337218652881 
1442	 0.130298278839762 
1443	 0.130349081514021 
1444	 0.129982882688195 
1445	 0.129193082584753 
1446	 0.128857941217394 
1447	 0.128399288223505 
1448	 0.128209553175077 
1449	 0.128596353333654 
1450	 0.128538800042071 
1451	 0.128266888376856 
1452	 0.128064222539248 
1453	 0.127588011611829 
1454	 0.127509630371785 
1455	 0.127767628161243 
1456	 0.127869855939251 
1457	 0.128025434438071 
1458	 0.128270250488632 
1459	 0.128742828765219 
1460	 0.128854563404477 
1461	 0.128893276769347 
1462	 0.129329599353057 
1463	 0.129393099062261 
1464	 0.129379816633649 
1465	 0.129897811079178 
1466	 0.130460044412535 
1467	 0.131032466656788 
1468	 0.131622794567092 
1469	 0.132003597565571 
1470	 0.132132478629956 
1471	 0.132515508643338 
1472	 0.132920995428226 
1473	 0.133373085364467 
1474	 0.134029308821274 
1475	 0.134644415502213 
1476	 0.135135384539007 
1477	 0.135797259032479 
1478	 0.136587411087493 
1479	 0.137330071744073 
1480	 0.138170129398217 
1481	 0.138960760739051 
1482	 0.139730357205276 
1483	 0.14050606078927 
1484	 0.141156317454699 
1485	 0.142038978625795 
1486	 0.143153828977315 
1487	 0.144049479099789 
1488	 0.144990807308588 
1489	 0.14571842383607 
1490	 0.146233882656028 
1491	 0.147080007448071 
1492	 0.148204375077995 
1493	 0.149680109237905 
1494	 0.1509621939381 
1495	 0.151798304786262 
1496	 0.152696251988864 
1497	 0.153450636850295 
1498	 0.153972693996273 
1499	 0.154846912218909 
1500	 0.155951685525531 
1501	 0.156850459173898 
1502	 0.157903213290988 
1503	 0.159318940646097 
1504	 0.160460193553834 
1505	 0.161471249544067 
1506	 0.162439905479804 
1507	 0.163369065631265 
1508	 0.164341472550895 
1509	 0.165060159845234 
1510	 0.166121412615455 
1511	 0.1674689551783 
1512	 0.168718008862479 
1513	 0.170238649308817 
1514	 0.171407439622481 
1515	 0.17236914375195 
1516	 0.173340395986544 
1517	 0.174099348814922 
1518	 0.174914536378604 
1519	 0.17574960542261 
1520	 0.176505019715844 
1521	 0.177358743267082 
1522	 0.17840910411608 
1523	 0.180025783037955 
1524	 0.181396255522578 
1525	 0.182248054781152 
1526	 0.183301628086363 
1527	 0.184164686681965 
1528	 0.184944057147357 
1529	 0.186381172227054 
1530	 0.187768605542997 
1531	 0.188913851361525 
1532	 0.190200328554955 
1533	 0.190880996366082 
1534	 0.191509638509932 
1535	 0.19224922227987 
1536	 0.192742385768817 
1537	 0.193490637316718 
1538	 0.19445523646774 
1539	 0.195410726148071 
1540	 0.196444248231262 
1541	 0.197476691880919 
1542	 0.198654720893593 
1543	 0.19973995336174 
1544	 0.200789149334611 
1545	 0.20168748668037 
1546	 0.202448490108239 
1547	 0.203310863197222 
1548	 0.204076794045023 
1549	 0.205017806019756 
1550	 0.206256845760289 
1551	 0.207093719851857 
1552	 0.207765467255026 
1553	 0.208456969223855 
1554	 0.208779130691942 
1555	 0.209496636384346 
1556	 0.210520498732812 
1557	 0.211433799545923 
1558	 0.212146943641642 
1559	 0.213102341446515 
1560	 0.213836120530412 
1561	 0.214294845248796 
1562	 0.215173102052742 
1563	 0.21604440095304 
1564	 0.216780559419815 
1565	 0.217675724228226 
1566	 0.218628210478886 
1567	 0.219526681262572 
1568	 0.220650476132585 
1569	 0.221921623636206 
1570	 0.222716865621365 
1571	 0.223242091886897 
1572	 0.22366653115792 
1573	 0.223846825179256 
1574	 0.224337996706793 
1575	 0.225151110049744 
1576	 0.225836450553237 
1577	 0.226698846517725 
1578	 0.227277350083851 
1579	 0.227775694555612 
1580	 0.228113661141541 
1581	 0.228005605795148 
1582	 0.228539569204507 
1583	 0.229246480475247 
1584	 0.229946308890576 
1585	 0.231082903071406 
1586	 0.232015254828683 
1587	 0.232823661050361 
1588	 0.233651648653268 
1589	 0.234801377490036 
1590	 0.235269660129595 
1591	 0.235060758429689 
1592	 0.235416504546014 
1593	 0.235497172127042 
1594	 0.236025810664027 
1595	 0.237295671761563 
1596	 0.23815684803854 
1597	 0.238949248437843 
1598	 0.239729912908884 
1599	 0.240465763651394 
1600	 0.241059197611654 
1601	 0.241581078683405 
1602	 0.242054330600684 
1603	 0.242318127921876 
1604	 0.242762241361987 
1605	 0.243436278662411 
1606	 0.243814363897344 
1607	 0.243691756773228 
1608	 0.244263545452789 
1609	 0.245042695179074 
1610	 0.245866596899139 
1611	 0.247569488911626 
1612	 0.248760397648151 
1613	 0.248937070713152 
1614	 0.249356198987547 
1615	 0.249809396018751 
1616	 0.250317718382093 
1617	 0.251291549849773 
1618	 0.251909400466764 
1619	 0.251949414253722 
1620	 0.251700558640939 
1621	 0.251568105841262 
1622	 0.251664071175381 
1623	 0.251724865543352 
1624	 0.252342118411009 
1625	 0.252874679921241 
1626	 0.253180359828295 
1627	 0.253886414011783 
1628	 0.254962991557927 
1629	 0.255552104279772 
1630	 0.256216370533634 
1631	 0.256628942346802 
1632	 0.25650201526428 
1633	 0.256898771530845 
1634	 0.257647150624726 
1635	 0.257884349217963 
1636	 0.257984970467503 
1637	 0.258299231402274 
1638	 0.258373370464266 
1639	 0.258530344791043 
1640	 0.259118279480737 
1641	 0.259238742198971 
1642	 0.258734336066296 
1643	 0.258932255087834 
1644	 0.259347618269682 
1645	 0.259807473650904 
1646	 0.260993345500332 
1647	 0.261162882327554 
1648	 0.260686242613289 
1649	 0.260601289602187 
1650	 0.260091445668583 
1651	 0.259926994035308 
1652	 0.260252748640702 
1653	 0.260280498673082 
1654	 0.260015244473463 
1655	 0.260065847690635 
1656	 0.260428890045129 
1657	 0.260470533657798 
1658	 0.26028511117162 
1659	 0.26048837847535 
1660	 0.260784315709764 
1661	 0.260974824992514 
1662	 0.261741120399867 
1663	 0.261783507412601 
1664	 0.260955463499756 
1665	 0.260750526204778 
1666	 0.260873090098752 
1667	 0.260433476498103 
1668	 0.259804500984033 
1669	 0.259449395403275 
1670	 0.258520146526368 
1671	 0.258133310812134 
1672	 0.258577473967536 
1673	 0.258616713247677 
1674	 0.258809564225544 
1675	 0.258538620273166 
1676	 0.257894274108503 
1677	 0.25732238384244 
1678	 0.256328588842837 
1679	 0.255550357857972 
1680	 0.254875093547343 
1681	 0.254328505399149 
1682	 0.253956994826153 
1683	 0.253449924588752 
1684	 0.252989887342127 
1685	 0.252548578649513 
1686	 0.251697901102496 
1687	 0.251424159036704 
1688	 0.25209862152411 
1689	 0.251820148966183 
1690	 0.251444784564901 
1691	 0.25077235694903 
1692	 0.248889746400292 
1693	 0.247791582268569 
1694	 0.247078758173709 
1695	 0.246361731959854 
1696	 0.245933487069774 
1697	 0.245485895836566 
1698	 0.244907026304144 
1699	 0.244640684848473 
1700	 0.245012436550597 
1701	 0.244728272668914 
1702	 0.244080565562828 
1703	 0.243699017405113 
1704	 0.242996316837518 
1705	 0.242417991141345 
1706	 0.242107716329659 
1707	 0.24190482958462 
1708	 0.241760326434202 
1709	 0.241484827639136 
1710	 0.24137585166857 
1711	 0.241212901819054 
1712	 0.240691471190834 
1713	 0.240442845528596 
1714	 0.240923355365766 
1715	 0.240561604146473 
1716	 0.239472905407393 
1717	 0.238843859299286 
1718	 0.237798665550346 
1719	 0.237076114072458 
1720	 0.23721980345613 
1721	 0.236815547178962 
1722	 0.235637055132031 
1723	 0.235215153689182 
1724	 0.235015704725562 
1725	 0.234978915944555 
1726	 0.235787798462535 
1727	 0.236178626605564 
1728	 0.236738599639529 
1729	 0.23656589824606 
1730	 0.235671045217055 
1731	 0.235050004817324 
1732	 0.233970787131043 
1733	 0.233042812780463 
1734	 0.23236778947455 
1735	 0.231671698259685 
1736	 0.230665602312649 
1737	 0.230028592832705 
1738	 0.229403324355667 
1739	 0.22944865321095 
1740	 0.230774223414402 
1741	 0.230952676474624 
1742	 0.231122436340169 
1743	 0.230856523635321 
1744	 0.228997874577584 
1745	 0.22813502267756 
1746	 0.228104138010951 
1747	 0.22756779319856 
1748	 0.227167939424056 
1749	 0.226486200202901 
1750	 0.225230385209121 
1751	 0.22420776215376 
1752	 0.22290385070666 
1753	 0.222333089532754 
1754	 0.222352727984845 
1755	 0.222186733578766 
1756	 0.222477920494905 
1757	 0.222487502657152 
1758	 0.222036834654623 
1759	 0.221929134264347 
1760	 0.22253880931662 
1761	 0.222305246890589 
1762	 0.221135093379715 
1763	 0.22080433013541 
1764	 0.220497979438959 
1765	 0.22012101834968 
1766	 0.220691806044359 
1767	 0.220794710061969 
1768	 0.220465413128044 
1769	 0.219710188000088 
1770	 0.21849248064643 
1771	 0.217749549192423 
1772	 0.21654968246178 
1773	 0.215808193757607 
1774	 0.215947459767347 
1775	 0.215436340779344 
1776	 0.213856498890615 
1777	 0.214050793674123 
1778	 0.215460495375732 
1779	 0.216140401563474 
1780	 0.218095391472699 
1781	 0.218587331635129 
1782	 0.217455743736617 
1783	 0.217090911297075 
1784	 0.216588338654897 
1785	 0.216232692558565 
1786	 0.216171674815537 
1787	 0.21579814954917 
1788	 0.215395118567806 
1789	 0.214722697196892 
1790	 0.213331025529397 
1791	 0.21311708600358 
1792	 0.213274496288526 
1793	 0.213304755842785 
1794	 0.214342803866844 
1795	 0.214782378439273 
1796	 0.214882031025182 
1797	 0.214968231905689 
1798	 0.215142852124304 
1799	 0.214503634965581 
1800	 0.212492536025708 
1801	 0.219904347817361 
1802	 0.218471827422136 
1803	 0.217999066733313 
1804	 0.217634667652156 
1805	 0.217742874128128 
1806	 0.217622970229632 
1807	 0.218902170686347 
1808	 0.222244762867559 
1809	 0.224524038398183 
1810	 0.224953139422495 
1811	 0.22531975095397 
1812	 0.222305972505537 
1813	 0.219877443030218 
1814	 0.218707681676569 
1815	 0.217945012605119 
1816	 0.217350938977393 
1817	 0.217281821782142 
1818	 0.217708457264443 
1819	 0.21791117210443 
1820	 0.220490874692361 
1821	 0.222038664663954 
1822	 0.224194331295694 
1823	 0.225007958460431 
1824	 0.223818824014239 
1825	 0.224149668723192 
1826	 0.225245817507535 
1827	 0.225030078988907 
1828	 0.224223234599932 
1829	 0.224747347281266 
1830	 0.224556737340212 
1831	 0.223598823655586 
1832	 0.222581257666163 
1833	 0.220642710290425 
1834	 0.219296208918039 
1835	 0.216179614334907 
1836	 0.216003476670606 
1837	 0.217927847022502 
1838	 0.21970778826132 
1839	 0.220436563405791 
1840	 0.219614783368193 
1841	 0.218535368148904 
1842	 0.217727393023045 
1843	 0.217093659284043 
1844	 0.21736354083238 
1845	 0.216428508675021 
1846	 0.213359393167844 
1847	 0.212264751438677 
1848	 0.211466535671687 
1849	 0.211634202274195 
1850	 0.212419486695889 
1851	 0.213005990425489 
1852	 0.213604619294234 
1853	 0.213366934640005 
1854	 0.212308524253269 
1855	 0.211543438932268 
1856	 0.21051850110501 
1857	 0.209009570535895 
1858	 0.207667394239517 
1859	 0.206667628083026 
1860	 0.203630916051246 
1861	 0.199394973527086 
1862	 0.19603381322038 
1863	 0.193547650818972 
1864	 0.191418430909616 
1865	 0.191086266119282 
1866	 0.190292838492257 
1867	 0.188166380568587 
1868	 0.184444236723906 
1869	 0.181686783346163 
1870	 0.177573758392334 
1871	 0.172751000326492 
1872	 0.167396820089801 
1873	 0.162767635933087 
1874	 0.159168499194562 
1875	 0.155241759373117 
1876	 0.152195289669553 
1877	 0.148734184714533 
1878	 0.145148186608685 
1879	 0.141868407680808 
1880	 0.137314295257061 
1881	 0.132112150573089 
1882	 0.127680918851426 
1883	 0.122769609959025 
1884	 0.118641000317162 
1885	 0.115417759068284 
1886	 0.111752987752907 
1887	 0.108696339134707 
1888	 0.106930151643384 
1889	 0.104647933424568 
1890	 0.102578712679265 
1891	 0.101164936998346 
1892	 9.90116916398415E-02 
1893	 9.59059548650589E-02 
1894	 0.094683291025461 
1895	 9.28405531121791E-02 
1896	 8.87775989398315E-02 
1897	 8.46022329733472E-02 
1898	 8.06462774194295E-02 
1899	 7.77605158313522E-02 
1900	 7.48332658583531E-02 
1901	 7.39024814567471E-02 
1902	 7.54705316934771E-02 
1903	 7.57758896222888E-02 
1904	 7.50727119646271E-02 
1905	 7.43282907276996E-02 
1906	 7.16618339958299E-02 
1907	 6.96451847386814E-02 
1908	 0.067922034929937 
1909	 6.54876208147107E-02 
1910	 6.45356659016986E-02 
1911	 6.47964979245122E-02 
1912	 6.44107246079969E-02 
1913	 6.45503534894443E-02 
1914	 6.48824657663012E-02 
1915	 6.43901974885436E-02 
1916	 6.20843879807115E-02 
1917	 0.060344727210226 
1918	 0.060561623405925 
1919	 0.060623364975781 
1920	 6.18863584789817E-02 
1921	 6.29405263403611E-02 
1922	 6.52032664669375E-02 
1923	 6.55185931974801E-02 
1924	 6.54889267663563E-02 
1925	 6.39454685646181E-02 
1926	 6.23330357110318E-02 
1927	 6.01490869859918E-02 
1928	 5.92576685569061E-02 
1929	 6.04885139236032E-02 
1930	 6.25778932062804E-02 
1931	 6.35590448437819E-02 
1932	 0.063067402031563 
1933	 6.35272447747621E-02 
1934	 6.31607404698078E-02 
1935	 6.06330321827776E-02 
1936	 6.02698575177474E-02 
1937	 6.10465323390173E-02 
1938	 6.15570287518531E-02 
1939	 6.20186031069218E-02 
1940	 6.32245454771542E-02 
1941	 0.065809797014902 
1942	 6.62018435502715E-02 
1943	 6.68774491418531E-02 
1944	 6.77430592256641E-02 
1945	 6.70677505110002E-02 
1946	 6.38763936007913E-02 
1947	 6.29309816985434E-02 
1948	 6.21107258977903E-02 
1949	 6.12152490743941E-02 
1950	 6.25855061715834E-02 
1951	 6.36231332322916E-02 
1952	 6.33990508364356E-02 
1953	 6.45412600815773E-02 
1954	 6.40328708223759E-02 
1955	 6.24108061404437E-02 
1956	 6.13550193245929E-02 
1957	 5.95062556818234E-02 
1958	 0.05895472803964 
1959	 0.058977571155049 
1960	 0.05922687188066 
1961	 6.03899074452836E-02 
1962	 6.14159716024655E-02 
1963	 6.21150982194586E-02 
1964	 6.28910991032183E-02 
1965	 6.45556276470632E-02 
1966	 6.63993770565051E-02 
1967	 6.74206901721234E-02 
1968	 6.74775501605835E-02 
1969	 6.75227105901816E-02 
1970	 6.53255831108293E-02 
1971	 6.58185511633797E-02 
1972	 6.92190318240636E-02 
1973	 7.01303637524429E-02 
1974	 7.12619694927878E-02 
1975	 7.16501639748882E-02 
1976	 6.93050787008516E-02 
1977	 6.63627523348325E-02 
1978	 6.59969991453374E-02 
1979	 6.57404743416202E-02 
1980	 6.60489951127066E-02 
1981	 6.79242805104532E-02 
1982	 6.87963362896413E-02 
1983	 6.93816809104294E-02 
1984	 7.05661354756565E-02 
1985	 0.072331518386078 
1986	 7.30260050067296E-02 
1987	 7.36642208136661E-02 
1988	 7.34826242134472E-02 
1989	 7.37000222198129E-02 
1990	 7.38100671768625E-02 
1991	 7.54570753031798E-02 
1992	 7.77026481310547E-02 
1993	 7.86630798008487E-02 
1994	 0.078936316689517 
1995	 7.98174887128901E-02 
1996	 8.05093060880551E-02 
1997	 8.09420482248422E-02 
1998	 8.16127513803344E-02 
1999	 8.20004043030973E-02 
2000	 8.21118630405692E-02 
2001	 8.11764686937127E-02 
2002	 8.06275266153036E-02 
2003	 8.23777160250087E-02 
2004	 8.30599575495139E-02 
2005	 8.24156093596976E-02 
2006	 8.24156396592956E-02 
2007	 8.20489636459322E-02 
2008	 8.16488174419314E-02 
2009	 8.15505261138692E-02 
2010	 8.14747547860244E-02 
2011	 8.06920028071007E-02 
2012	 8.08992699840195E-02 
2013	 8.16240457241501E-02 
2014	 8.25916807613216E-02 
2015	 8.46141739357706E-02 
2016	 8.55717480953674E-02 
2017	 8.59464339538122E-02 
2018	 8.61737088089813E-02 
2019	 8.56606890454267E-02 
2020	 8.41580876617065E-02 
2021	 0.083478329990278 
2022	 8.26686056827232E-02 
2023	 8.17779860363713E-02 
2024	 7.98483885164658E-02 
2025	 7.97907928233914E-02 
2026	 8.07494355732716E-02 
2027	 8.13503014853904E-02 
2028	 8.31548323001429E-02 
2029	 8.55733525147063E-02 
2030	 8.58449127443643E-02 
2031	 8.78826261425283E-02 
2032	 0.087899397891923 
2033	 8.63721732753985E-02 
2034	 8.68255897147125E-02 
2035	 8.67123045144714E-02 
2036	 8.69604440368712E-02 
2037	 0.089781452865249 
2038	 9.07600956246835E-02 
2039	 8.95520375930596E-02 
2040	 9.01997805589682E-02 
2041	 9.26957683038799E-02 
2042	 9.23226597145324E-02 
2043	 9.25649213591558E-02 
2044	 9.59295031266635E-02 
2045	 9.66003262611048E-02 
2046	 9.64462475365845E-02 
2047	 9.57251329430044E-02 
2048	 9.28106733433947E-02 
2049	 0.092476629491644 
2050	 9.35153804049535E-02 
2051	 9.34469919167496E-02 
2052	 9.33327977856357E-02 
2053	 0.094280792887242 
2054	 9.46592701992283E-02 
2055	 0.095668286885751 
2056	 9.75677997715582E-02 
2057	 0.102137895976993 
2058	 0.104405948569553 
2059	 0.10516415192431 
2060	 0.105104090890992 
2061	 0.103491839686375 
2062	 0.102897869864212 
2063	 0.101620008723031 
2064	 0.100377740109434 
2065	 9.97192655600367E-02 
2066	 9.90380468836834E-02 
2067	 9.67998318850653E-02 
2068	 9.64206800161712E-02 
2069	 9.70009552532935E-02 
2070	 9.82411036662216E-02 
2071	 0.100500686140346 
2072	 0.103830095608654 
2073	 0.106674247975238 
2074	 0.109917914811476 
2075	 0.110473799533153 
2076	 0.109736094345983 
2077	 0.107638440460977 
2078	 0.101375209615854 
2079	 9.92414597010106E-02 
2080	 9.75959292207772E-02 
2081	 9.70361852336355E-02 
2082	 9.94760789065798E-02 
2083	 0.100992930546882 
2084	 0.102227143419767 
2085	 0.103550189442294 
2086	 0.106008238317291 
2087	 0.107149477216967 
2088	 0.107338665153104 
2089	 0.10839047254511 
2090	 0.109027841435289 
2091	 0.109634311458252 
2092	 0.109014773821599 
2093	 0.106694936198623 
2094	 0.107035753829133 
2095	 0.10890426232086 
2096	 0.108465629027991 
2097	 0.108279216967687 
2098	 0.108718008879276 
2099	 0.10649990818893 
2100	 0.105879518381725 
2101	 0.107575560555451 
2102	 0.109319148161902 
2103	 0.110665211661454 
2104	 0.113366525513379 
2105	 0.114750720814287 
2106	 0.11736970650423 
2107	 0.117526248185161 
2108	 0.114581414698151 
2109	 0.114472622538606 
2110	 0.115341011922092 
2111	 0.115440277669828 
2112	 0.115711979045833 
2113	 0.116568546264605 
2114	 0.118020352131002 
2115	 0.117561579245221 
2116	 0.117165170153318 
2117	 0.116424683354113 
2118	 0.111764702945839 
2119	 0.110668693999756 
2120	 0.11114754281245 
2121	 0.114898296726354 
2122	 0.115844583488753 
2123	 0.118524059496718 
2124	 0.117624090743334 
2125	 0.112083113340028 
2126	 0.110747693909189 
2127	 0.10871191728511 
2128	 0.110108350804448 
2129	 0.11560421717038 
2130	 0.119804771011703 
2131	 0.126780575701914 
2132	 0.13045359533626 
2133	 0.132984213833805 
2134	 0.134653127091598 
2135	 0.135198741343986 
2136	 0.1341703137166 
2137	 0.132142707054789 
2138	 0.127640147141405 
2139	 0.124618359115421 
2140	 0.119267006265363 
2141	 0.117640116152699 
2142	 0.118217154213289 
2143	 0.118567400414415 
2144	 0.121173653975831 
2145	 0.122015407266442 
2146	 0.121943973582626 
2147	 0.122512416498956 
2148	 0.122889451197962 
2149	 0.122758346014534 
2150	 0.121385847328419 
2151	 0.122864536767588 
2152	 0.126795860529477 
2153	 0.12870870143596 
2154	 0.131172045508035 
2155	 0.134814173634335 
2156	 0.135120805843179 
2157	 0.131437127361436 
2158	 0.12764047355258 
2159	 0.120507173528996 
2160	 0.118933187428555 
2161	 0.117952076077286 
2162	 0.117409556354168 
2163	 0.12122377028908 
2164	 0.121709339122803 
2165	 0.118613015363171 
2166	 0.119569459341395 
2167	 0.123403727008484 
2168	 0.124844780149878 
2169	 0.127335579614426 
2170	 0.127956808694432 
2171	 0.12564333385231 
2172	 0.124857435328513 
2173	 0.123577679274204 
2174	 0.12380403512719 
2175	 0.123443165064971 
2176	 0.1251987008888 
2177	 0.127910645684635 
2178	 0.133273173854987 
2179	 0.134644411945746 
2180	 0.137398150323428 
2181	 0.134096211839526 
2182	 0.124070230011415 
2183	 0.119665028292926 
2184	 0.112819387393787 
2185	 0.111401152925067 
2186	 0.115469140057099 
2187	 0.11748782960652 
2188	 0.121150780015398 
2189	 0.123664634016881 
2190	 0.126620728387762 
2191	 0.127725881763119 
2192	 0.128495555966915 
2193	 0.128009339887966 
2194	 0.124801947139244 
2195	 0.121965955997736 
2196	 0.121230497499297 
2197	 0.122391581807525 
2198	 0.122666262445294 
2199	 0.125354954219043 
2200	 0.125390806011801 
2201	 0.122932922238101 
2202	 0.122416809296414 
2203	 0.122314473170371 
2204	 0.121974630394307 
2205	 0.122473786872116 
2206	 0.12192346367649 
2207	 0.120701959445447 
2208	 0.119757165176229 
2209	 0.117025246720299 
2210	 0.117159749275609 
2211	 0.119573827108556 
2212	 0.120693977612381 
2213	 0.1234864517883 
2214	 0.125284140151869 
2215	 0.124276627288429 
2216	 0.125511727667431 
2217	 0.129842603700994 
2218	 0.130737033554062 
2219	 0.13248711834022 
2220	 0.134826666614741 
2221	 0.134986185159872 
2222	 0.133287744266679 
2223	 0.131996420822203 
2224	 0.129916602607037 
2225	 0.127906197947566 
2226	 0.12337314853548 
2227	 0.124021680377271 
2228	 0.1281121013003 
2229	 0.129809281804181 
2230	 0.135397687693585 
2231	 0.136554659648364 
2232	 0.133455163887156 
2233	 0.131366252026658 
2234	 0.127020305174615 
2235	 0.124996817080155 
2236	 0.123614236692596 
2237	 0.12225903450909 
2238	 0.12229177115398 
2239	 0.122633443720738 
2240	 0.122605417360169 
2241	 0.124029548206445 
2242	 0.124123503058602 
2243	 0.125364136691332 
2244	 0.124955096388399 
2245	 0.123829817631179 
2246	 0.124503941692905 
2247	 0.126719273737413 
2248	 0.128456154359415 
2249	 0.131462559450165 
2250	 0.131478214675637 
2251	 0.1301417062261 
2252	 0.129240795423029 
2253	 0.126341056003743 
2254	 0.126105364592227 
2255	 0.128350563312799 
2256	 0.12799816300374 
2257	 0.128477837247931 
2258	 0.125853568636459 
2259	 0.117923999872486 
2260	 0.11496128341616 
2261	 0.111602338878336 
2262	 0.11075092775187 
2263	 0.116880103298201 
2264	 0.118483499115746 
2265	 0.117695693755782 
2266	 0.117854754610392 
2267	 0.118812088908404 
2268	 0.11536300620621 
2269	 0.112112151959209 
2270	 0.111441490558303 
2271	 0.10836413970015 
2272	 0.107047720970118 
2273	 0.109244245246995 
2274	 0.110447992753638 
2275	 0.113649267435736 
2276	 0.114925462230857 
2277	 0.114521291390373 
2278	 0.112120352969119 
2279	 0.112161980130321 
2280	 0.111849540839482 
2281	 0.11103158843968 
2282	 0.113196340361424 
2283	 0.109048933991827 
2284	 9.88009387702607E-02 
2285	 9.39336420694113E-02 
2286	 8.61692397593396E-02 
2287	 8.46110954434368E-02 
2288	 9.03449518146613E-02 
2289	 9.20773835744344E-02 
2290	 9.73613758413422E-02 
2291	 9.80072819936991E-02 
2292	 9.19428666624794E-02 
2293	 9.14175998359612E-02 
2294	 9.25195925832171E-02 
2295	 9.09041768520525E-02 
2296	 9.07240652297969E-02 
2297	 9.17672121677773E-02 
2298	 9.18550668837325E-02 
2299	 9.15507151547879E-02 
2300	 9.31958157363792E-02 
2301	 9.28881335434578E-02 
2302	 9.40323408233264E-02 
2303	 9.26487897375108E-02 
2304	 9.34636666875239E-02 
2305	 9.97988138348972E-02 
2306	 0.102360986185294 
2307	 0.100738778962717 
2308	 0.102855442074693 
2309	 0.096879957929284 
2310	 8.96463496548734E-02 
2311	 9.16921132524288E-02 
2312	 9.33477713018405E-02 
2313	 9.56753229658477E-02 
2314	 9.76930780039919E-02 
2315	 9.68142052766588E-02 
2316	 9.63078153415626E-02 
2317	 9.12351401246089E-02 
2318	 9.47854989216761E-02 
2319	 0.10427367649994 
2320	 0.106022982689633 
2321	 0.108405785587061 
2322	 0.108556675304662 
2323	 0.103369823025654 
2324	 0.101371240732126 
2325	 0.101500419491993 
2326	 0.10101022402866 
2327	 9.74184247527741E-02 
2328	 9.74419414344441E-02 
2329	 0.10271805217116 
2330	 0.102012463516678 
2331	 0.101679147014307 
2332	 9.76055213224827E-02 
2333	 8.48972176692254E-02 
2334	 7.90044626994466E-02 
2335	 7.23277719673561E-02 
2336	 6.99286466255852E-02 
2337	 7.41558043395644E-02 
2338	 0.077583034943358 
2339	 8.32439135692143E-02 
2340	 8.68872496227883E-02 
2341	 9.28929514611744E-02 
2342	 9.39551139847922E-02 
2343	 9.06618279097751E-02 
2344	 9.78057663341795E-02 
2345	 9.70752730322405E-02 
2346	 0.101579669047589 
2347	 0.107098750023741 
2348	 0.101606528852407 
2349	 0.100759703517018 
2350	 9.62811750377999E-02 
2351	 9.27410815298279E-02 
2352	 9.17376178549209E-02 
2353	 9.01433644726515E-02 
2354	 0.087284821592556 
2355	 7.69293355218671E-02 
2356	 0.076728817544497 
2357	 8.41657089524454E-02 
2358	 0.077636033971368 
2359	 7.62946572088623E-02 
2360	 7.43528369534585E-02 
2361	 6.76479647430178E-02 
2362	 7.17397776902049E-02 
2363	 7.02095209568116E-02 
2364	 6.48605507428887E-02 
2365	 6.13817870131441E-02 
2366	 5.29232204129408E-02 
2367	 5.61617164603995E-02 
2368	 6.68933492974155E-02 
2369	 6.58108685416677E-02 
2370	 7.10804011913801E-02 
2371	 7.53700613466504E-02 
2372	 0.074104457870259 
2373	 7.20834097315201E-02 
2374	 6.83840462911696E-02 
2375	 7.19367924848818E-02 
2376	 6.96462590931003E-02 
2377	 7.57562009481017E-02 
2378	 8.82239206576338E-02 
2379	 9.22464829799229E-02 
2380	 9.23740921630904E-02 
2381	 8.32727916206153E-02 
2382	 6.88389728827039E-02 
2383	 5.52981765458057E-02 
2384	 5.81978086512525E-02 
2385	 5.95693750325565E-02 
2386	 7.10952011614111E-02 
2387	 7.28609893656224E-02 
2388	 6.82749656958015E-02 
2389	 6.46813257114378E-02 
2390	 6.09738970994184E-02 
2391	 5.77285601925998E-02 
2392	 5.36215245187153E-02 
2393	 5.02912256162179E-02 
2394	 4.75890342881353E-02 
2395	 4.72939685752284E-02 
2396	 5.33807985807698E-02 
2397	 6.07727956078966E-02 
2398	 6.46904703660693E-02 
2399	 6.54170041430804E-02 
2400	 6.05811271885566E-02 
2401	 5.07351367504479E-02 
2402	 3.84726596187392E-02 
2403	 4.18485428021709E-02 
2404	 0.057386536722973 
2405	 7.33734695929981E-02 
2406	 0.100660467746563 
2407	 0.107940205320137 
2408	 9.60271910978098E-02 
2409	 0.095586512550796 
2410	 0.092290772716877 
2411	 9.54582669192626E-02 
2412	 0.11365696438816 
2413	 0.112530678320231 
2414	 0.099853091755166 
2415	 9.11562259824753E-02 
2416	 8.17768111988355E-02 
2417	 7.42264327534633E-02 
2418	 6.44430878787114E-02 
2419	 6.15499372682115E-02 
2420	 5.28972630093823E-02 
2421	 4.16478148323823E-02 
2422	 3.79397740303751E-02 
2423	 4.21356191996749E-02 
2424	 5.66906164803225E-02 
2425	 5.58803886489098E-02 
2426	 4.97810235131004E-02 
2427	 5.00220240968807E-02 
2428	 4.03469174284917E-02 
2429	 0.042590185089015 
2430	 0.056030804251907 
2431	 5.67162491385327E-02 
2432	 5.06889048815499E-02 
2433	 3.65390946454031E-02 
2434	 2.37220698056401E-02 
2435	 3.05625028561294E-02 
2436	 4.11748479148453E-02 
2437	 4.22278844235557E-02 
2438	 4.47463455411033E-02 
2439	 4.16553499991393E-02 
2440	 2.01584116701666E-02 
2441	 2.17926691758892E-02 
2442	 0.047128147295082 
2443	 5.02295783258105E-02 
2444	 6.24436621222181E-02 
2445	 7.05916212034731E-02 
2446	 5.99607921475055E-02 
2447	 4.67349363568004E-02 
2448	 3.81721865125932E-02 
2449	 3.05792466131142E-02 
2450	 3.35693371970423E-02 
2451	 6.70409870639449E-02 
2452	 7.73816101856486E-02 
2453	 5.87101402382033E-02 
2454	 3.77301996889952E-02 
2455	-9.26554535097569E-03 
2456	-2.03189051985709E-02 
2457	-3.79235731690009E-03 
2458	 1.26959580758011E-02 
2459	 2.74067188926394E-02 
2460	 2.88717970802427E-02 
2461	 2.93674201183133E-02 
2462	 5.37112333432853E-03 
2463	 7.59993587181142E-03 
2464	 3.60707565325928E-02 
2465	 3.79561933668007E-02 
2466	 4.93229602896952E-02 
2467	 6.22203006748485E-02 
2468	 4.31213706638117E-02 
2469	 3.48642833176774E-02 
2470	 1.84882298591138E-02 
2471	 9.30366683210257E-03 
2472	 0.026434757299726 
2473	 2.03938551427509E-02 
2474	 4.03816982419262E-02 
2475	 0.056044930055767 
2476	 4.71693317061122E-02 
2477	 3.93000196063659E-02 
2478	 4.94795655099213E-02 
2479	 5.79358196148894E-02 
2480	 2.92541342265285E-02 
2481	 2.91066668388447E-02 
2482	 2.25689989467941E-02 
2483	-6.12058533761552E-03 
2484	-6.92467668654704E-03 
2485	 1.15547764651265E-02 
2486	-1.60523269155516E-02 
2487	-6.79894076133115E-02 
2488	-5.98633795636255E-02 
2489	-7.22139081029555E-02 
2490	-6.40398769844775E-02 
2491	-8.93888475691493E-03 
2492	-4.07319910513779E-02 
2493	-4.53669562496199E-02 
2494	-4.28971796983348E-02 
2495	-0.114576717437556 
2496	-0.114044055704677 
2497	-0.10718713949792 
2498	-0.114762480123532 
2499	-7.20218123678498E-02 
2500	-2.68673845239858E-02 
