Wavelength	MCL_ARB_055_234_210422_L00002.asd
350	 7.37974023206452E-02 
351	-0.357197474878684 
352	-0.788610497427018 
353	 9.52486535482434E-03 
354	-3.10270785609268E-02 
355	-0.217221345935577 
356	-0.236067749097804 
357	-3.68724675111565E-03 
358	 7.35135448266723E-02 
359	-4.16148593231922E-03 
360	-0.139417595304055 
361	-3.35435125252264E-02 
362	 6.01389954398466E-03 
363	 5.63361313877365E-03 
364	 0.05866318711872 
365	 4.42446738689832E-02 
366	 7.10429138335998E-02 
367	 0.12155334744662 
368	 3.09120408013354E-02 
369	 3.26125798196429E-02 
370	 7.32979192494674E-02 
371	 7.67614773089034E-02 
372	 4.52837240794648E-02 
373	 4.50725331004479E-02 
374	 0.074598417187194 
375	 0.093846154929375 
376	 4.98370116287774E-02 
377	 3.66297010444719E-02 
378	 6.74696891469675E-02 
379	 6.33504886451541E-02 
380	 6.96807341904852E-02 
381	 7.84858987676898E-02 
382	 7.91941131683655E-02 
383	 8.01621471017715E-02 
384	 6.49624346470049E-02 
385	 4.67637022344392E-02 
386	 4.59654456603268E-02 
387	 4.15240778702319E-02 
388	 3.50463573806568E-02 
389	 3.55161263790565E-02 
390	 5.55341653964709E-02 
391	 6.17987116942935E-02 
392	 0.0563170493692 
393	 5.21872881471756E-02 
394	 7.25147467143581E-02 
395	 8.57547708848179E-02 
396	 9.20353381108603E-02 
397	 0.100649035863838 
398	 8.82469169424022E-02 
399	 6.70344358375873E-02 
400	 5.30398151058004E-02 
401	 6.24260301981828E-02 
402	 6.98821805481563E-02 
403	 7.31523687747131E-02 
404	 7.23224914449321E-02 
405	 5.67435526648896E-02 
406	 6.56603881542629E-02 
407	 8.13776478772396E-02 
408	 7.11088643423189E-02 
409	 0.075647341167123 
410	 8.10603467204683E-02 
411	 7.79763002453146E-02 
412	 6.70623992087084E-02 
413	 7.18812460994072E-02 
414	 7.69938723011216E-02 
415	 7.03820743664474E-02 
416	 0.068840806652836 
417	 7.42549398612607E-02 
418	 8.16838859625346E-02 
419	 8.39639552580461E-02 
420	 8.55826327563139E-02 
421	 0.080220257432985 
422	 7.15654109976062E-02 
423	 7.52852197443526E-02 
424	 7.84542291538514E-02 
425	 7.95468591273337E-02 
426	 7.93950675601128E-02 
427	 7.74226795836395E-02 
428	 7.50853660606121E-02 
429	 7.51980281748347E-02 
430	 8.01628868786722E-02 
431	 8.36608658338709E-02 
432	 8.26495371197882E-02 
433	 0.078214290311485 
434	 7.60050344547952E-02 
435	 7.51618782560132E-02 
436	 7.52509302258143E-02 
437	 7.59487904309389E-02 
438	 0.078055655568608 
439	 7.70790675423301E-02 
440	 7.46062008448683E-02 
441	 7.59747242157627E-02 
442	 7.94234223346129E-02 
443	 8.02255353636705E-02 
444	 7.71351750282572E-02 
445	 7.55959653607032E-02 
446	 7.59842071608371E-02 
447	 7.79792702199973E-02 
448	 8.03964317206966E-02 
449	 0.081092737505193 
450	 7.96457953768026E-02 
451	 7.80618787558066E-02 
452	 8.01244078519936E-02 
453	 8.01981278374986E-02 
454	 0.081233281360962 
455	 8.43972639189033E-02 
456	 8.24189214844423E-02 
457	 0.080157697454147 
458	 7.88315696517427E-02 
459	 7.84572249729983E-02 
460	 8.27959950503507E-02 
461	 8.43042742822966E-02 
462	 8.11384990872781E-02 
463	 7.97018734366839E-02 
464	 8.12917360965924E-02 
465	 8.28381095686237E-02 
466	 0.081581102415669 
467	 0.07969583200319 
468	 8.01409970977202E-02 
469	 0.081435583704477 
470	 7.97631928767935E-02 
471	 7.87697243331395E-02 
472	 7.78295739734341E-02 
473	 7.69894888567509E-02 
474	 7.85432910109175E-02 
475	 7.89596598925899E-02 
476	 7.80838778213575E-02 
477	 7.73205128429102E-02 
478	 7.96135461617971E-02 
479	 8.11208696726864E-02 
480	 8.06602500755917E-02 
481	 7.97886086565678E-02 
482	 7.98384780981476E-02 
483	 7.98968367708334E-02 
484	 7.93348580614627E-02 
485	 7.96650597691374E-02 
486	 7.77649085149352E-02 
487	 7.59325451716083E-02 
488	 7.79349659212149E-02 
489	 7.82457803922506E-02 
490	 7.90994333343212E-02 
491	 8.03491421215621E-02 
492	 7.78113758067022E-02 
493	 7.77338691341682E-02 
494	 7.96333856704052E-02 
495	 8.10720360331891E-02 
496	 7.95892987023474E-02 
497	 7.85518154628894E-02 
498	 7.85377163194438E-02 
499	 7.82396332101496E-02 
500	 0.080306742714723 
501	 8.13304861489195E-02 
502	 8.00574092422455E-02 
503	 8.12150016878817E-02 
504	 8.15831960791471E-02 
505	 8.15946336729008E-02 
506	 8.25677768114173E-02 
507	 8.32239817003321E-02 
508	 8.41516150983381E-02 
509	 8.52985169726618E-02 
510	 0.085817018446754 
511	 8.53475663888784E-02 
512	 8.62238515363474E-02 
513	 8.93685103580266E-02 
514	 8.98331754446783E-02 
515	 9.07277868363572E-02 
516	 9.23408111284667E-02 
517	 9.35156011275317E-02 
518	 9.59400002387688E-02 
519	 9.77137084304695E-02 
520	 0.098299451829738 
521	 0.100144850209574 
522	 0.101769458445873 
523	 0.1033874820717 
524	 0.105497163316859 
525	 0.107452207556536 
526	 0.109741622803917 
527	 0.112045133248905 
528	 0.113323097271197 
529	 0.114693442363446 
530	 0.116093830828183 
531	 0.117273150908004 
532	 0.118031370668493 
533	 0.119374648887826 
534	 0.120791616720695 
535	 0.121237709194664 
536	 0.122105116109848 
537	 0.122615055634818 
538	 0.122595637519335 
539	 0.123077194998472 
540	 0.123879404348527 
541	 0.124387642367938 
542	 0.124321082043239 
543	 0.125484338004912 
544	 0.12625280240303 
545	 0.126164633354872 
546	 0.125882272872428 
547	 0.126004203142375 
548	 0.12641285683519 
549	 0.126839971991275 
550	 0.127059817739196 
551	 0.127166311700882 
552	 0.127278139222503 
553	 0.127404501838938 
554	 0.126551997343667 
555	 0.126064050192026 
556	 0.126234453142393 
557	 0.125561216846211 
558	 0.124689002291383 
559	 0.123499460810443 
560	 0.122000591148538 
561	 0.121483128454651 
562	 0.120648348340069 
563	 0.119380012974699 
564	 0.118538214039384 
565	 0.117514822241726 
566	 0.116485397723158 
567	 0.115441834240585 
568	 0.113541737313762 
569	 0.111794800004486 
570	 0.110768211176097 
571	 0.110524007488282 
572	 0.10917255104385 
573	 0.10778774248268 
574	 0.106801729362752 
575	 0.105380550147501 
576	 0.104539627292222 
577	 0.103558846800907 
578	 0.101850203419986 
579	 0.101183032175393 
580	 0.100939189635244 
581	 0.100680828583503 
582	 0.100152274095372 
583	 9.91608706845007E-02 
584	 9.78292667709052E-02 
585	 9.66065912880821E-02 
586	 9.65859633072221E-02 
587	 9.66238985379051E-02 
588	 9.61483252442446E-02 
589	 9.50652711429419E-02 
590	 9.46456246087973E-02 
591	 9.48864289919118E-02 
592	 9.52737342891226E-02 
593	 9.48257718185026E-02 
594	 9.38468843450626E-02 
595	 9.31575011039085E-02 
596	 9.31779927342176E-02 
597	 9.23828023113755E-02 
598	 9.23376051733663E-02 
599	 9.27216690595744E-02 
600	 9.20626669701229E-02 
601	 9.18373521005177E-02 
602	 0.091755975070584 
603	 9.14740970430912E-02 
604	 9.10667764903326E-02 
605	 9.00366468148844E-02 
606	 8.91532730708531E-02 
607	 8.92471000261927E-02 
608	 8.85983033125846E-02 
609	 8.83524978355526E-02 
610	 8.84215120251071E-02 
611	 8.72429657140806E-02 
612	 8.64532685966486E-02 
613	 8.63972239457636E-02 
614	 8.66289458089831E-02 
615	 8.51854480505153E-02 
616	 0.084335453201104 
617	 8.41695940703472E-02 
618	 0.083534517741377 
619	 8.26915559061442E-02 
620	 8.24379849386172E-02 
621	 8.28705349017037E-02 
622	 8.28311162248909E-02 
623	 8.22774589668441E-02 
624	 0.081637533739136 
625	 8.13988410671379E-02 
626	 8.13124055891883E-02 
627	 8.13878760807883E-02 
628	 8.17678624611179E-02 
629	 8.26218683263791E-02 
630	 8.21309927678788E-02 
631	 8.14431069320276E-02 
632	 8.14811523069751E-02 
633	 8.08999155525316E-02 
634	 8.14477450535571E-02 
635	 8.19280876339001E-02 
636	 8.02760354509899E-02 
637	 7.92756614294635E-02 
638	 7.92394009068853E-02 
639	 7.96549879253283E-02 
640	 7.92470035615367E-02 
641	 7.83659545895586E-02 
642	 7.75331371435875E-02 
643	 7.70398131244241E-02 
644	 0.075974987656301 
645	 7.53754407542783E-02 
646	 7.51603887747319E-02 
647	 7.45457631257053E-02 
648	 7.50172292168429E-02 
649	 7.51241739745619E-02 
650	 7.42912348182606E-02 
651	 7.45972075724942E-02 
652	 7.40878387684663E-02 
653	 7.32233329918872E-02 
654	 7.30363881991087E-02 
655	 7.25900239525983E-02 
656	 7.25619140876528E-02 
657	 7.26894143146388E-02 
658	 7.17582539564675E-02 
659	 7.13571080816808E-02 
660	 7.11097193933894E-02 
661	 7.06684694605921E-02 
662	 7.10310655539096E-02 
663	 0.070501086936215 
664	 6.97090931514267E-02 
665	 7.00994056186998E-02 
666	 6.95907535365235E-02 
667	 0.069219983235829 
668	 6.94091108132341E-02 
669	 6.93376125389139E-02 
670	 6.97241728016833E-02 
671	 6.98559021353675E-02 
672	 6.92770555953277E-02 
673	 6.97467538799653E-02 
674	 7.04249760337194E-02 
675	 7.09155856070758E-02 
676	 7.11824870722234E-02 
677	 7.13704597526799E-02 
678	 7.17235195004512E-02 
679	 7.22586320830261E-02 
680	 7.25674434276888E-02 
681	 7.31373486009861E-02 
682	 7.39219875648771E-02 
683	 7.46851456000918E-02 
684	 7.51697134355652E-02 
685	 7.59032796381481E-02 
686	 0.076997363332041 
687	 7.81943916248437E-02 
688	 7.98694357370946E-02 
689	 8.09737680900876E-02 
690	 8.15820581365867E-02 
691	 8.49221036968398E-02 
692	 8.72900013031885E-02 
693	 0.089869334821004 
694	 0.094897437953247 
695	 9.95487740877522E-02 
696	 0.103904638426289 
697	 0.108616506503056 
698	 0.114681919761337 
699	 0.121761932262123 
700	 0.129259094421827 
701	 0.136725348489053 
702	 0.144109960364738 
703	 0.152211037445176 
704	 0.160975738886587 
705	 0.169946507217826 
706	 0.17890300480541 
707	 0.188372124044552 
708	 0.198206190926474 
709	 0.207450038282559 
710	 0.216916192401242 
711	 0.226902963541334 
712	 0.237303847146991 
713	 0.247366591289089 
714	 0.257550771252373 
715	 0.268048330830882 
716	 0.278770587916587 
717	 0.289193924700944 
718	 0.299677967518976 
719	 0.310107753422318 
720	 0.31980743074526 
721	 0.330110542299166 
722	 0.340462840152107 
723	 0.350147056924173 
724	 0.359261339126014 
725	 0.368371389043576 
726	 0.377299677937401 
727	 0.385531465940239 
728	 0.393356665715157 
729	 0.40123271971933 
730	 0.409106117025985 
731	 0.416241120580129 
732	 0.422614111464116 
733	 0.428797724756089 
734	 0.43503292941392 
735	 0.440228519632289 
736	 0.445108602157769 
737	 0.449846806764193 
738	 0.45430741458097 
739	 0.458282327921343 
740	 0.462127275983988 
741	 0.465781848127568 
742	 0.468695086559278 
743	 0.471194400212324 
744	 0.473596679857958 
745	 0.476032814221426 
746	 0.478142000253469 
747	 0.480104780307606 
748	 0.481839406225411 
749	 0.483170398871516 
750	 0.484022561010602 
751	 0.484854420966524 
752	 0.485876626786578 
753	 0.486990677836799 
754	 0.487984580693243 
755	 0.488351839152803 
756	 0.488085250504122 
757	 0.48834401101357 
758	 0.488707560169762 
759	 0.489278756859065 
760	 0.490094197884347 
761	 0.490091247226207 
762	 0.490158863687503 
763	 0.49056720129558 
764	 0.490953035043441 
765	 0.490809442866325 
766	 0.490241134709079 
767	 0.48967959347637 
768	 0.489944412225432 
769	 0.489605495783874 
770	 0.489344024685192 
771	 0.489939785498605 
772	 0.490185741191611 
773	 0.489840616960399 
774	 0.489318420591476 
775	 0.489302391583122 
776	 0.489102427110132 
777	 0.488884215258218 
778	 0.488724201259047 
779	 0.488486463689378 
780	 0.488687129090616 
781	 0.488923000191117 
782	 0.48882411460014 
783	 0.48867949850621 
784	 0.488281733696735 
785	 0.487922482441243 
786	 0.487972730285115 
787	 0.488063553158827 
788	 0.488438969948925 
789	 0.488902396155643 
790	 0.488889573025314 
791	 0.488273910777165 
792	 0.488126252616298 
793	 0.48860654157757 
794	 0.488093404922761 
795	 0.48796910854333 
796	 0.487959643862694 
797	 0.48768874769129 
798	 0.487985206882028 
799	 0.488287436398672 
800	 0.488295780457761 
801	 0.487950636000264 
802	 0.487639788497214 
803	 0.487711271751837 
804	 0.488049783019934 
805	 0.488104154636342 
806	 0.487706262759891 
807	 0.487535270363814 
808	 0.487758904654607 
809	 0.48733455282465 
810	 0.487201642426448 
811	 0.487116042746111 
812	 0.486806928184657 
813	 0.487144730224525 
814	 0.487481483200213 
815	 0.487346653992879 
816	 0.486650126289264 
817	 0.486817016800352 
818	 0.486836289944114 
819	 0.486819914601327 
820	 0.487893391086584 
821	 0.487535488068431 
822	 0.486808142128258 
823	 0.486711871537945 
824	 0.487120988398472 
825	 0.48710179582557 
826	 0.486870290021328 
827	 0.486835072175465 
828	 0.486953318037142 
829	 0.486835257583183 
830	 0.486567262577469 
831	 0.486468904658198 
832	 0.486867564337946 
833	 0.486702417847405 
834	 0.486142264886065 
835	 0.486251601817932 
836	 0.486702069416226 
837	 0.486860989297041 
838	 0.486589077410048 
839	 0.486407723974462 
840	 0.485955258794652 
841	 0.485774936983899 
842	 0.486044626270302 
843	 0.485840479706486 
844	 0.485576109755203 
845	 0.485448147276303 
846	 0.485497537997597 
847	 0.485408982524983 
848	 0.485643301061009 
849	 0.486007627793573 
850	 0.486019142932053 
851	 0.485493092294385 
852	 0.485307434265887 
853	 0.485466816297744 
854	 0.485328931858667 
855	 0.485544749081738 
856	 0.485516011032681 
857	 0.485140125826444 
858	 0.485060612228367 
859	 0.485345970659133 
860	 0.48557321248442 
861	 0.485384236170407 
862	 0.484719340669222 
863	 0.485061734317748 
864	 0.485324630991256 
865	 0.484628113254922 
866	 0.484716350817917 
867	 0.485349451500457 
868	 0.485443104507291 
869	 0.484317469878891 
870	 0.484322100104698 
871	 0.484775735896216 
872	 0.485242696116756 
873	 0.485431550303117 
874	 0.4848333919102 
875	 0.484627715599347 
876	 0.48503137266635 
877	 0.485403128118542 
878	 0.486029662400664 
879	 0.485664919226206 
880	 0.484532387659567 
881	 0.484502018253081 
882	 0.484005144309209 
883	 0.483632989463361 
884	 0.48382968615788 
885	 0.484241377528276 
886	 0.484094016283505 
887	 0.484144456299106 
888	 0.484734029528366 
889	 0.484580425834576 
890	 0.483548610808075 
891	 0.483236316668262 
892	 0.484333110154603 
893	 0.483284830631008 
894	 0.483392024525778 
895	 0.48384833719556 
896	 0.483067654330067 
897	 0.482498877615839 
898	 0.482484634335176 
899	 0.483056680517634 
900	 0.483826744761147 
901	 0.483496793945869 
902	 0.482982512187502 
903	 0.483202806640527 
904	 0.484324817227056 
905	 0.482797219252513 
906	 0.481433504334038 
907	 0.481599299417072 
908	 0.482743159968092 
909	 0.482382580311112 
910	 0.481738419534089 
911	 0.481716550307728 
912	 0.482298474522474 
913	 0.481684247459971 
914	 0.480966566159881 
915	 0.481261359281835 
916	 0.482901176867214 
917	 0.4823890189067 
918	 0.481806999745326 
919	 0.482157971233034 
920	 0.481871904220995 
921	 0.481214416794198 
922	 0.480044522560357 
923	 0.479165455900428 
924	 0.48058157388937 
925	 0.480586637001882 
926	 0.480102464050396 
927	 0.480159788424717 
928	 0.480230875024231 
929	 0.480041701868692 
930	 0.480447875918239 
931	 0.481754159894791 
932	 0.482799301984126 
933	 0.480869815113919 
934	 0.478344840932273 
935	 0.47772206247243 
936	 0.47885075249174 
937	 0.478775145727364 
938	 0.478315591193718 
939	 0.478353045648495 
940	 0.477506430410801 
941	 0.476916535007711 
942	 0.477394267195252 
943	 0.478587555166377 
944	 0.477941134770566 
945	 0.47734929463022 
946	 0.477192206959984 
947	 0.477152523232475 
948	 0.476370215156757 
949	 0.475264759278691 
950	 0.475368788902056 
951	 0.476660188335781 
952	 0.475112547169618 
953	 0.472527376101438 
954	 0.471717255712156 
955	 0.473436817985851 
956	 0.473386716803669 
957	 0.471371046420481 
958	 0.470363286338719 
959	 0.471400576048972 
960	 0.469502787952199 
961	 0.468157023778602 
962	 0.467973318429811 
963	 0.46878911521674 
964	 0.470422136804892 
965	 0.47043080631055 
966	 0.46858321075982 
967	 0.466945522180525 
968	 0.469980775869782 
969	 0.472211877010162 
970	 0.471169036338029 
971	 0.467855477552009 
972	 0.467226504130964 
973	 0.468466350968249 
974	 0.470469685805129 
975	 0.470664090205866 
976	 0.465580640630435 
977	 0.46423669465313 
978	 0.465441043869714 
979	 0.467763145295558 
980	 0.471347571461072 
981	 0.467558039495666 
982	 0.467935888469647 
983	 0.472736326342733 
984	 0.468847881595226 
985	 0.464555533806138 
986	 0.462585433081013 
987	 0.463360684381656 
988	 0.465343138707604 
989	 0.46507566944582 
990	 0.466260603853826 
991	 0.467247302764239 
992	 0.464213055679312 
993	 0.465911637593568 
994	 0.467882096583709 
995	 0.46855948067892 
996	 0.468431931013323 
997	 0.466371371064098 
998	 0.466892727383823 
999	 0.468258194250046 
1000	 0.467455683657423 
1001	 0.467055935769574 
1002	 0.46696857599136 
1003	 0.465997922632575 
1004	 0.466815055729576 
1005	 0.467731511986332 
1006	 0.468684531967909 
1007	 0.470167074522604 
1008	 0.46966211778371 
1009	 0.468499575688128 
1010	 0.468050075734085 
1011	 0.467700192136798 
1012	 0.467535474014493 
1013	 0.467755951011884 
1014	 0.468341307116119 
1015	 0.46884229384981 
1016	 0.469163847082316 
1017	 0.469876984985131 
1018	 0.470574086343598 
1019	 0.469779640909528 
1020	 0.469882549114162 
1021	 0.471272589312075 
1022	 0.471654183549341 
1023	 0.473456852662939 
1024	 0.474514262757324 
1025	 0.475540618111405 
1026	 0.474739552731134 
1027	 0.474659368615737 
1028	 0.474323745714971 
1029	 0.474045141114617 
1030	 0.474217460677358 
1031	 0.474351638743991 
1032	 0.473729130987135 
1033	 0.472976707044797 
1034	 0.472526546663478 
1035	 0.472428944485485 
1036	 0.473134076152094 
1037	 0.473407746046987 
1038	 0.473929306128158 
1039	 0.473580303624427 
1040	 0.473277337644791 
1041	 0.472317589771429 
1042	 0.471403027082237 
1043	 0.471584229312684 
1044	 0.47227134706196 
1045	 0.472858080121805 
1046	 0.474082814933421 
1047	 0.475042640033981 
1048	 0.475493208038371 
1049	 0.475522496906987 
1050	 0.475608297112764 
1051	 0.475293683178993 
1052	 0.475003698291209 
1053	 0.474873781843416 
1054	 0.474733184484294 
1055	 0.474714557211845 
1056	 0.474888019158319 
1057	 0.474900911941649 
1058	 0.475085043131922 
1059	 0.475899989506963 
1060	 0.475850456314882 
1061	 0.475711059457607 
1062	 0.475489115587424 
1063	 0.475241619798506 
1064	 0.474286152912685 
1065	 0.474235177121774 
1066	 0.474336565442308 
1067	 0.474552604923789 
1068	 0.47486726560479 
1069	 0.474376325545353 
1070	 0.474430388682659 
1071	 0.474912023961002 
1072	 0.474897533768043 
1073	 0.47465540403312 
1074	 0.474809079591099 
1075	 0.474882244512407 
1076	 0.474837086673479 
1077	 0.474875071536144 
1078	 0.475304430491177 
1079	 0.475347482860245 
1080	 0.474776407885761 
1081	 0.473909894622317 
1082	 0.473723727761013 
1083	 0.473770907205314 
1084	 0.474226975562215 
1085	 0.474725350145974 
1086	 0.476093362864464 
1087	 0.476407083314651 
1088	 0.476210495411254 
1089	 0.475982330474207 
1090	 0.475421273390891 
1091	 0.475067691754564 
1092	 0.474551390182412 
1093	 0.474329769680011 
1094	 0.474120193001238 
1095	 0.473956924274732 
1096	 0.473879225450124 
1097	 0.473706532017177 
1098	 0.473540473799142 
1099	 0.473291785095721 
1100	 0.473173461670711 
1101	 0.473208324922303 
1102	 0.473073322782859 
1103	 0.472717950151245 
1104	 0.472731196374228 
1105	 0.472644209605786 
1106	 0.473023096085585 
1107	 0.47365788612404 
1108	 0.473950315772328 
1109	 0.473990499015471 
1110	 0.47318331130093 
1111	 0.472782904582093 
1112	 0.472268527223201 
1113	 0.471898461242165 
1114	 0.471496932436446 
1115	 0.47142633022427 
1116	 0.471442553278031 
1117	 0.471398985967562 
1118	 0.471927025491994 
1119	 0.471883228293321 
1120	 0.471556818239126 
1121	 0.471052710540846 
1122	 0.470255221539218 
1123	 0.469567570018963 
1124	 0.4690111950993 
1125	 0.468660414512152 
1126	 0.468013292396598 
1127	 0.467192203694729 
1128	 0.466624959199351 
1129	 0.465849069979748 
1130	 0.465382173567282 
1131	 0.465497473344207 
1132	 0.465249843715998 
1133	 0.465190311056204 
1134	 0.464388859573522 
1135	 0.464108640696284 
1136	 0.463737990121586 
1137	 0.462948337987509 
1138	 0.462152174669135 
1139	 0.461171644455029 
1140	 0.45953813085726 
1141	 0.458327627607567 
1142	 0.457076923383009 
1143	 0.456132282854329 
1144	 0.45573168930837 
1145	 0.45479157854163 
1146	 0.453696035684474 
1147	 0.45276128489877 
1148	 0.451692964992326 
1149	 0.450308131961629 
1150	 0.449279765246877 
1151	 0.448587091197405 
1152	 0.447668138526055 
1153	 0.446700829535916 
1154	 0.445685453507062 
1155	 0.444589998686012 
1156	 0.44368798186044 
1157	 0.442592017591317 
1158	 0.441878215455683 
1159	 0.441592623610367 
1160	 0.441172359683533 
1161	 0.44106292771887 
1162	 0.440639039811189 
1163	 0.439959431984299 
1164	 0.439297808248203 
1165	 0.438784203732908 
1166	 0.438073723282448 
1167	 0.437769104145372 
1168	 0.437953072852208 
1169	 0.437680528701138 
1170	 0.43729910014141 
1171	 0.437026906921177 
1172	 0.436694844693412 
1173	 0.436283460968326 
1174	 0.43584711504615 
1175	 0.435541485792407 
1176	 0.435189232708663 
1177	 0.434813010540445 
1178	 0.43448214023578 
1179	 0.434377495552785 
1180	 0.434033948308911 
1181	 0.433436529906208 
1182	 0.433135383757057 
1183	 0.432936242887223 
1184	 0.432739772695555 
1185	 0.432742877514326 
1186	 0.432534843355691 
1187	 0.43204296083789 
1188	 0.431922310957904 
1189	 0.431939603781116 
1190	 0.431923955794814 
1191	 0.432228908385497 
1192	 0.432351308543713 
1193	 0.432387394216348 
1194	 0.432212126200146 
1195	 0.432251760432283 
1196	 0.432423289129356 
1197	 0.432340705829624 
1198	 0.432135738762766 
1199	 0.432085521918992 
1200	 0.431852382499994 
1201	 0.431868938532253 
1202	 0.432351058376789 
1203	 0.432384130757444 
1204	 0.431900459235049 
1205	 0.432033899964709 
1206	 0.432425934407249 
1207	 0.432666928952991 
1208	 0.433173271644995 
1209	 0.433816617745014 
1210	 0.434238724786772 
1211	 0.434366532669608 
1212	 0.434566751796323 
1213	 0.434812713643244 
1214	 0.435099992806276 
1215	 0.435299349824355 
1216	 0.435496087373227 
1217	 0.436000843025709 
1218	 0.436050610001596 
1219	 0.435500515509722 
1220	 0.435468424942879 
1221	 0.435468803021509 
1222	 0.435560310233621 
1223	 0.436134476532727 
1224	 0.43644281720945 
1225	 0.436652089180972 
1226	 0.436673634740751 
1227	 0.436949442729823 
1228	 0.437269801285486 
1229	 0.437493846362024 
1230	 0.437683313000581 
1231	 0.438023404765834 
1232	 0.438476190459103 
1233	 0.438785184720172 
1234	 0.43925888251389 
1235	 0.439562819315307 
1236	 0.439518239729533 
1237	 0.43956725719969 
1238	 0.439618133797249 
1239	 0.439799059089819 
1240	 0.439777209669736 
1241	 0.43980305771162 
1242	 0.439845711111511 
1243	 0.439761631735031 
1244	 0.440062090473808 
1245	 0.440614977955876 
1246	 0.441074137584 
1247	 0.441848695214835 
1248	 0.442251589160628 
1249	 0.44248589286809 
1250	 0.442603020167879 
1251	 0.442516194366346 
1252	 0.442485505925238 
1253	 0.442346314782072 
1254	 0.44223731905785 
1255	 0.442186818907664 
1256	 0.441971110605167 
1257	 0.441952456524343 
1258	 0.441907654052924 
1259	 0.44186417030754 
1260	 0.44181919131896 
1261	 0.441912731742245 
1262	 0.442113110283923 
1263	 0.442169189325073 
1264	 0.442375966328736 
1265	 0.442395331214831 
1266	 0.442018878338347 
1267	 0.44202205574703 
1268	 0.442241547498722 
1269	 0.442311313872253 
1270	 0.442540674792251 
1271	 0.442629456280817 
1272	 0.442479063245914 
1273	 0.442497136875153 
1274	 0.442356572777607 
1275	 0.442261580132333 
1276	 0.442219717957251 
1277	 0.442133120140834 
1278	 0.442002072718135 
1279	 0.442030188434324 
1280	 0.441846639020595 
1281	 0.441448908486747 
1282	 0.441207273996402 
1283	 0.440932338865771 
1284	 0.440695183495264 
1285	 0.4404398959443 
1286	 0.440260157389948 
1287	 0.440194653610752 
1288	 0.440110390169013 
1289	 0.440020508062108 
1290	 0.440099357863674 
1291	 0.440218160074368 
1292	 0.439755892675498 
1293	 0.439132070318626 
1294	 0.438770641351592 
1295	 0.438612831596527 
1296	 0.438707514479045 
1297	 0.438506367463362 
1298	 0.438510720673332 
1299	 0.438159249634896 
1300	 0.437317549279051 
1301	 0.436669665175192 
1302	 0.436185150458649 
1303	 0.435519129355958 
1304	 0.43447573118145 
1305	 0.433856693211808 
1306	 0.4335112918125 
1307	 0.432788273798563 
1308	 0.432624751048458 
1309	 0.432653531388498 
1310	 0.432114629571725 
1311	 0.431534193510725 
1312	 0.430752974842021 
1313	 0.429789133446013 
1314	 0.429013271633263 
1315	 0.428360275436513 
1316	 0.427663952721903 
1317	 0.42698310334414 
1318	 0.426262857588653 
1319	 0.425633430264106 
1320	 0.424740671779649 
1321	 0.423724593444905 
1322	 0.422727521998777 
1323	 0.421534575290016 
1324	 0.420347742045714 
1325	 0.419156704010296 
1326	 0.41803993338578 
1327	 0.416561099075478 
1328	 0.41544849169913 
1329	 0.414681825046889 
1330	 0.413270670512134 
1331	 0.41191993224614 
1332	 0.41081241515868 
1333	 0.409712445331205 
1334	 0.40858574025969 
1335	 0.407539501856332 
1336	 0.406668038605045 
1337	 0.405622859854926 
1338	 0.404453021591159 
1339	 0.403375675551999 
1340	 0.402401883665914 
1341	 0.401314312753559 
1342	 0.400169180190031 
1343	 0.398946044565588 
1344	 0.397532142408009 
1345	 0.396234567555378 
1346	 0.395278895140691 
1347	 0.394200105249292 
1348	 0.393133599874693 
1349	 0.392370985117072 
1350	 0.391151496927327 
1351	 0.389799917952243 
1352	 0.388505647171879 
1353	 0.387080119780327 
1354	 0.385714110768667 
1355	 0.384303904447155 
1356	 0.383120207620839 
1357	 0.382105022864215 
1358	 0.381115973208936 
1359	 0.380361475919577 
1360	 0.379292731465468 
1361	 0.378131957325071 
1362	 0.376840966828284 
1363	 0.375233992640289 
1364	 0.374006498706255 
1365	 0.372611417941097 
1366	 0.371293661708371 
1367	 0.3699076829356 
1368	 0.367875730272189 
1369	 0.365862784552334 
1370	 0.363589656938204 
1371	 0.361385766794189 
1372	 0.359604980832975 
1373	 0.357583819896639 
1374	 0.355815000586097 
1375	 0.353540235522721 
1376	 0.350927482618404 
1377	 0.348232067609182 
1378	 0.345216456340401 
1379	 0.341962243687635 
1380	 0.338574197356967 
1381	 0.335017006284498 
1382	 0.331430416956127 
1383	 0.327396543054315 
1384	 0.323055786017005 
1385	 0.318531279346369 
1386	 0.313855563187754 
1387	 0.308708550688545 
1388	 0.303512910646038 
1389	 0.298024618314785 
1390	 0.292187513025005 
1391	 0.286429864011294 
1392	 0.280633697524581 
1393	 0.274905638081001 
1394	 0.269335397493641 
1395	 0.263747516680077 
1396	 0.258223598266783 
1397	 0.252831173396754 
1398	 0.247413299345087 
1399	 0.241982209683746 
1400	 0.236619237904504 
1401	 0.231491568701146 
1402	 0.226209733795616 
1403	 0.220505306802124 
1404	 0.215309990251005 
1405	 0.210244732969932 
1406	 0.205524207673701 
1407	 0.200943830739071 
1408	 0.197219293412683 
1409	 0.193720300307056 
1410	 0.190067178916184 
1411	 0.187047054682866 
1412	 0.184056495435874 
1413	 0.18100438644678 
1414	 0.177930344084786 
1415	 0.17476494704035 
1416	 0.171907563235304 
1417	 0.169213387546011 
1418	 0.167000380748191 
1419	 0.164908767338912 
1420	 0.163153258298212 
1421	 0.161250740038151 
1422	 0.159550151100311 
1423	 0.15772647033229 
1424	 0.155653938173893 
1425	 0.154054164364948 
1426	 0.152487896415474 
1427	 0.151259218433899 
1428	 0.150532604565882 
1429	 0.149747546019861 
1430	 0.149203228090056 
1431	 0.148535219113744 
1432	 0.147834495228874 
1433	 0.147151542060067 
1434	 0.146566625092406 
1435	 0.146188859180025 
1436	 0.145632396474088 
1437	 0.145107382283964 
1438	 0.144504649102132 
1439	 0.143782791982937 
1440	 0.143403237646657 
1441	 0.143159469816656 
1442	 0.142844796556207 
1443	 0.142502130985775 
1444	 0.142310032591038 
1445	 0.142133618019523 
1446	 0.142060823405741 
1447	 0.142244014824619 
1448	 0.142257276959458 
1449	 0.142209751332225 
1450	 0.142092098386832 
1451	 0.141859655481594 
1452	 0.141759211936687 
1453	 0.141671469846646 
1454	 0.141687619536628 
1455	 0.141879071063997 
1456	 0.141869089254679 
1457	 0.14182489664696 
1458	 0.141691318637514 
1459	 0.141479863662244 
1460	 0.141553784726817 
1461	 0.141785217808445 
1462	 0.14220657568493 
1463	 0.142826989901821 
1464	 0.143354246017631 
1465	 0.143684398421165 
1466	 0.143890917502538 
1467	 0.144197545643704 
1468	 0.144441547014364 
1469	 0.144794103650171 
1470	 0.145335209525506 
1471	 0.145866792065487 
1472	 0.146309381730497 
1473	 0.146969212424522 
1474	 0.147935545292713 
1475	 0.148709231284527 
1476	 0.149365988729516 
1477	 0.150235768865581 
1478	 0.151185963079599 
1479	 0.15204736845893 
1480	 0.152861989976154 
1481	 0.153894100201847 
1482	 0.15508006369855 
1483	 0.156110469854235 
1484	 0.157291361161925 
1485	 0.158500061102444 
1486	 0.159632645323362 
1487	 0.160604783476899 
1488	 0.161748564528961 
1489	 0.163011157275387 
1490	 0.164139459452637 
1491	 0.165150142778933 
1492	 0.166022519858839 
1493	 0.166771877315698 
1494	 0.167532292116385 
1495	 0.168636686614134 
1496	 0.169987633065942 
1497	 0.171524030752375 
1498	 0.173241060473523 
1499	 0.174461918059243 
1500	 0.175741632224844 
1501	 0.17697717535028 
1502	 0.178074204306305 
1503	 0.178884771847141 
1504	 0.180077013754539 
1505	 0.181515818200009 
1506	 0.182635745002823 
1507	 0.183782713117255 
1508	 0.184882722337169 
1509	 0.185584597145979 
1510	 0.186591074770478 
1511	 0.187863254193494 
1512	 0.189134982027765 
1513	 0.1904392454237 
1514	 0.191710092734812 
1515	 0.193000264248011 
1516	 0.194258824347833 
1517	 0.195524565510993 
1518	 0.196851991628149 
1519	 0.198278161330649 
1520	 0.199705904393274 
1521	 0.20067765462403 
1522	 0.201534779776133 
1523	 0.202518492731876 
1524	 0.203457041366473 
1525	 0.204680140955766 
1526	 0.20619400958346 
1527	 0.207420614470597 
1528	 0.208483231205126 
1529	 0.209674716549457 
1530	 0.210786022520123 
1531	 0.212021144530165 
1532	 0.213258835416801 
1533	 0.214472029094262 
1534	 0.2158548655511 
1535	 0.216838506523622 
1536	 0.217408528868396 
1537	 0.218411458905871 
1538	 0.219385152071162 
1539	 0.22029778723578 
1540	 0.22155939110775 
1541	 0.222529469529015 
1542	 0.223066968172262 
1543	 0.223932695814948 
1544	 0.224976821715848 
1545	 0.225962365259722 
1546	 0.227015243038514 
1547	 0.228068353564765 
1548	 0.229173648021207 
1549	 0.230066999047554 
1550	 0.230833245033297 
1551	 0.231732335348556 
1552	 0.232613012258155 
1553	 0.233395947097651 
1554	 0.234186159807271 
1555	 0.234923149698362 
1556	 0.235435609121151 
1557	 0.236216380415575 
1558	 0.236943068537154 
1559	 0.237729841043422 
1560	 0.238730765126951 
1561	 0.23970938720725 
1562	 0.240842913288064 
1563	 0.242234798430921 
1564	 0.243649574308411 
1565	 0.244750520085979 
1566	 0.245604465394173 
1567	 0.246408574167929 
1568	 0.247076277385509 
1569	 0.247920869860381 
1570	 0.248495976725447 
1571	 0.249085314769201 
1572	 0.249783571707389 
1573	 0.250308023292876 
1574	 0.25133758755995 
1575	 0.252444307982414 
1576	 0.253348828765974 
1577	 0.254238103052604 
1578	 0.254971251582169 
1579	 0.255519408530141 
1580	 0.256052475277322 
1581	 0.256574257459373 
1582	 0.257052554026444 
1583	 0.257264321740908 
1584	 0.257945354888881 
1585	 0.258806285719336 
1586	 0.259587671782893 
1587	 0.260710806563954 
1588	 0.261529310377383 
1589	 0.26200090652722 
1590	 0.262830382248919 
1591	 0.263763680605725 
1592	 0.264672182763139 
1593	 0.265987319372956 
1594	 0.266801245739498 
1595	 0.267559220682271 
1596	 0.267833031243486 
1597	 0.267188553010896 
1598	 0.267327034273758 
1599	 0.2674855976209 
1600	 0.26776595715442 
1601	 0.268532558333013 
1602	 0.269249265331741 
1603	 0.26994743136284 
1604	 0.270694777560519 
1605	 0.271890694405004 
1606	 0.272644106675887 
1607	 0.27293957650952 
1608	 0.273364367851421 
1609	 0.273689804877123 
1610	 0.2738481516329 
1611	 0.274728244461988 
1612	 0.275408256457452 
1613	 0.275966004474778 
1614	 0.276909334733335 
1615	 0.27753454379022 
1616	 0.278211799424692 
1617	 0.278871057752058 
1618	 0.279439529746302 
1619	 0.279925200696063 
1620	 0.280141702332439 
1621	 0.280294574223281 
1622	 0.280644348262547 
1623	 0.281194322402356 
1624	 0.281780360526151 
1625	 0.281943167728545 
1626	 0.282089919552694 
1627	 0.282319329532481 
1628	 0.282088665371292 
1629	 0.282523904926582 
1630	 0.283503869928139 
1631	 0.284155218694295 
1632	 0.284958281517488 
1633	 0.285365909605441 
1634	 0.285583483713374 
1635	 0.285872399947059 
1636	 0.28593160741474 
1637	 0.286002854110986 
1638	 0.285930876756669 
1639	 0.286341275238875 
1640	 0.286983756537279 
1641	 0.28761814806341 
1642	 0.288710606881869 
1643	 0.289373661863721 
1644	 0.289896232597293 
1645	 0.289914080130318 
1646	 0.289617015945843 
1647	 0.289355670399446 
1648	 0.28837848693512 
1649	 0.288321178869263 
1650	 0.288895229951955 
1651	 0.289091765556559 
1652	 0.289526376834006 
1653	 0.289639862975062 
1654	 0.289369089896401 
1655	 0.289363087325997 
1656	 0.289579166538303 
1657	 0.289536189510554 
1658	 0.289262632848815 
1659	 0.289263073324704 
1660	 0.289281638264946 
1661	 0.289256819113021 
1662	 0.289463203290812 
1663	 0.289451024820731 
1664	 0.289104648518997 
1665	 0.289101646909782 
1666	 0.289372173400885 
1667	 0.289394588876248 
1668	 0.289594541801665 
1669	 0.289362154739992 
1670	 0.288492606345676 
1671	 0.288147980452112 
1672	 0.287764682684277 
1673	 0.28761908270406 
1674	 0.288259389331562 
1675	 0.288116123589909 
1676	 0.287754253012535 
1677	 0.287129454691728 
1678	 0.285605265885087 
1679	 0.284775253300149 
1680	 0.283949326713241 
1681	 0.283498700321536 
1682	 0.283870525748045 
1683	 0.2836967240554 
1684	 0.283588078505047 
1685	 0.283224538550858 
1686	 0.282332933079062 
1687	 0.281688865633092 
1688	 0.281090741809349 
1689	 0.280436934262433 
1690	 0.279637256098638 
1691	 0.279126429327164 
1692	 0.278940630908094 
1693	 0.278406643776582 
1694	 0.277909967722985 
1695	 0.277371647564838 
1696	 0.276284917743361 
1697	 0.275660388494517 
1698	 0.27548010494023 
1699	 0.275142408324027 
1700	 0.274903089337462 
1701	 0.274653906476872 
1702	 0.274174083056279 
1703	 0.274026545754053 
1704	 0.274367969745602 
1705	 0.274293523771933 
1706	 0.274779015889985 
1707	 0.274142771936317 
1708	 0.272154621746564 
1709	 0.270791138607675 
1710	 0.268376216779574 
1711	 0.267291110124602 
1712	 0.2676988205585 
1713	 0.267557222878736 
1714	 0.26799423571373 
1715	 0.26801189045889 
1716	 0.267600142841248 
1717	 0.2671471253998 
1718	 0.266333420022492 
1719	 0.265939532329866 
1720	 0.265733272727289 
1721	 0.265373114092239 
1722	 0.265594988355563 
1723	 0.265099537968516 
1724	 0.263769735122038 
1725	 0.262833763549516 
1726	 0.261478819941316 
1727	 0.260725364717102 
1728	 0.260671881770495 
1729	 0.260273877720743 
1730	 0.259896870333304 
1731	 0.259656635487557 
1732	 0.259492867781166 
1733	 0.259179987431568 
1734	 0.258568937758267 
1735	 0.258601478515817 
1736	 0.259171855420521 
1737	 0.259163227399157 
1738	 0.259329970189692 
1739	 0.259527440675094 
1740	 0.259208932388545 
1741	 0.258960749316303 
1742	 0.259184106135278 
1743	 0.259019115296675 
1744	 0.258544427664617 
1745	 0.257830562898766 
1746	 0.256779997973339 
1747	 0.255932104811453 
1748	 0.254497104560301 
1749	 0.253798670197673 
1750	 0.253906616293973 
1751	 0.253688182540163 
1752	 0.254001672430134 
1753	 0.253644189392034 
1754	 0.252763486365975 
1755	 0.251831080566221 
1756	 0.250165324224062 
1757	 0.249157066723018 
1758	 0.248105035503872 
1759	 0.24778288033425 
1760	 0.248377294850989 
1761	 0.248679682530577 
1762	 0.249708217462186 
1763	 0.249826202473838 
1764	 0.249144177241761 
1765	 0.248752217473603 
1766	 0.248265099735959 
1767	 0.247537734472085 
1768	 0.246367250794939 
1769	 0.246238924288209 
1770	 0.246636059421986 
1771	 0.246371467964633 
1772	 0.246730657521684 
1773	 0.24645441544047 
1774	 0.244634016312393 
1775	 0.244234751597105 
1776	 0.244885402510006 
1777	 0.244797510155382 
1778	 0.245252454060608 
1779	 0.244901810204716 
1780	 0.243636328027641 
1781	 0.242974253220588 
1782	 0.241881637331298 
1783	 0.241423345513067 
1784	 0.241475536992602 
1785	 0.241231410207865 
1786	 0.241451772565048 
1787	 0.241163454166258 
1788	 0.24021793731974 
1789	 0.240190261507737 
1790	 0.240149698893803 
1791	 0.240770744573936 
1792	 0.242969256378377 
1793	 0.243416244632047 
1794	 0.243154074891649 
1795	 0.243128394850722 
1796	 0.242049585186405 
1797	 0.24171248197107 
1798	 0.242273190763022 
1799	 0.242291030633689 
1800	 0.241905948447621 
1801	 0.247750797416864 
1802	 0.248096689191597 
1803	 0.24819964812308 
1804	 0.24652501424881 
1805	 0.247312139376445 
1806	 0.249577454909176 
1807	 0.251130754658984 
1808	 0.253930674057534 
1809	 0.255422128377984 
1810	 0.255727332954646 
1811	 0.257179837053337 
1812	 0.257814848363216 
1813	 0.25772791011469 
1814	 0.257647581651114 
1815	 0.256760187868235 
1816	 0.256354097385877 
1817	 0.256156985563377 
1818	 0.255924237890933 
1819	 0.255716531848105 
1820	 0.255830320987804 
1821	 0.255482632949577 
1822	 0.25527060159364 
1823	 0.254778254038578 
1824	 0.253480641540986 
1825	 0.253131235533224 
1826	 0.253058706474486 
1827	 0.253193923849555 
1828	 0.25353733066728 
1829	 0.255291698959311 
1830	 0.256607920365152 
1831	 0.255451926731543 
1832	 0.255391032214533 
1833	 0.256975191946272 
1834	 0.256692791639656 
1835	 0.255768545813005 
1836	 0.255449492819854 
1837	 0.255185939710127 
1838	 0.252726707128273 
1839	 0.250972285872012 
1840	 0.252299604117064 
1841	 0.252991151257881 
1842	 0.25036056397449 
1843	 0.249461532716893 
1844	 0.247089538657246 
1845	 0.245444813551006 
1846	 0.243816702837995 
1847	 0.243099756119767 
1848	 0.242943051325578 
1849	 0.243170273717894 
1850	 0.242752770342872 
1851	 0.241602970983534 
1852	 0.241222545104355 
1853	 0.240950956700582 
1854	 0.241634101329658 
1855	 0.241563693029029 
1856	 0.240709899797154 
1857	 0.239553718884521 
1858	 0.238223669226654 
1859	 0.234312939870018 
1860	 0.230022824621224 
1861	 0.226844534659688 
1862	 0.22125999917631 
1863	 0.21676126321446 
1864	 0.215163081048453 
1865	 0.212452352532857 
1866	 0.210348607814962 
1867	 0.208590913439568 
1868	 0.207657372846576 
1869	 0.205869561238888 
1870	 0.202645438287985 
1871	 0.198476587698572 
1872	 0.193099507921939 
1873	 0.18529981042477 
1874	 0.179314709467447 
1875	 0.174417329202144 
1876	 0.170522995560793 
1877	 0.168278449753638 
1878	 0.164402266979822 
1879	 0.160372479386736 
1880	 0.155539225552554 
1881	 0.150224366775571 
1882	 0.14455563988921 
1883	 0.138695425684405 
1884	 0.135354968518642 
1885	 0.132106849533193 
1886	 0.128153663052088 
1887	 0.125448699476336 
1888	 0.120434790615542 
1889	 0.115885402020121 
1890	 0.110714593739697 
1891	 0.10596247375881 
1892	 0.101756393821132 
1893	 9.93113752640813E-02 
1894	 9.68722170118864E-02 
1895	 9.43452848568257E-02 
1896	 9.07413649295886E-02 
1897	 8.72470171512852E-02 
1898	 8.45057247586791E-02 
1899	 8.17333773484079E-02 
1900	 7.92599300171394E-02 
1901	 0.07781791086488 
1902	 7.72514687113934E-02 
1903	 7.53711637789253E-02 
1904	 0.074684740999313 
1905	 7.25453776285821E-02 
1906	 7.08772711498255E-02 
1907	 7.05064314940108E-02 
1908	 6.96544843003413E-02 
1909	 6.93454232573972E-02 
1910	 6.88231123887616E-02 
1911	 6.75891145682706E-02 
1912	 6.69124705396033E-02 
1913	 6.65618925809805E-02 
1914	 6.69593299434732E-02 
1915	 0.06578348171728 
1916	 6.41127893798353E-02 
1917	 6.38965375072806E-02 
1918	 6.21151522082775E-02 
1919	 6.27582401370921E-02 
1920	 6.51792478991194E-02 
1921	 6.58766817992634E-02 
1922	 6.71738235406821E-02 
1923	 6.71246159449601E-02 
1924	 6.58167505301253E-02 
1925	 6.33287593420467E-02 
1926	 6.32611500066675E-02 
1927	 0.062737696109719 
1928	 6.23807853568638E-02 
1929	 6.30092154385222E-02 
1930	 6.24283317797406E-02 
1931	 0.061502474990038 
1932	 6.22514735625921E-02 
1933	 6.36715448167671E-02 
1934	 6.41564961870078E-02 
1935	 6.47562843545433E-02 
1936	 6.45268050215113E-02 
1937	 6.33607183543062E-02 
1938	 6.18460443764678E-02 
1939	 0.060867107211363 
1940	 6.15690148136874E-02 
1941	 6.20525088842963E-02 
1942	 6.22610414086951E-02 
1943	 0.063279567095587 
1944	 0.062502197838959 
1945	 6.18454987082951E-02 
1946	 6.02444031207883E-02 
1947	 6.05162829920713E-02 
1948	 6.12789060906132E-02 
1949	 6.21637652337013E-02 
1950	 6.33052754287414E-02 
1951	 6.48512109615024E-02 
1952	 6.47137782931021E-02 
1953	 0.063755169545393 
1954	 0.063228979761191 
1955	 6.23196475383208E-02 
1956	 6.28834407674989E-02 
1957	 6.48775774224154E-02 
1958	 0.065384380756822 
1959	 6.68751236418336E-02 
1960	 6.71419020482892E-02 
1961	 6.58126616181398E-02 
1962	 0.063633275501453 
1963	 6.31818889257721E-02 
1964	 6.48781930568065E-02 
1965	 6.81619027690197E-02 
1966	 6.99461995161754E-02 
1967	 0.071326421968455 
1968	 7.18653950658999E-02 
1969	 7.15237099034723E-02 
1970	 6.83282819226654E-02 
1971	 6.85006051250664E-02 
1972	 0.070166547546421 
1973	 7.04856472021678E-02 
1974	 7.19012717864907E-02 
1975	 7.23789708844256E-02 
1976	 7.12163596663226E-02 
1977	 7.10977437446599E-02 
1978	 7.03398020265058E-02 
1979	 7.08567692449255E-02 
1980	 7.08387005803233E-02 
1981	 0.07010578900085 
1982	 7.04403534757151E-02 
1983	 7.09328953721372E-02 
1984	 7.20166827023946E-02 
1985	 7.46094279823687E-02 
1986	 7.61722663330342E-02 
1987	 7.75696236879276E-02 
1988	 7.94402040066696E-02 
1989	 8.10230440217412E-02 
1990	 8.16632816413637E-02 
1991	 8.07344773445114E-02 
1992	 8.00920971348904E-02 
1993	 8.07083782434542E-02 
1994	 8.05438895085683E-02 
1995	 0.081918065211905 
1996	 8.71777494695701E-02 
1997	 0.088788698976183 
1998	 8.90563810061237E-02 
1999	 8.93257331257381E-02 
2000	 8.80692106033784E-02 
2001	 8.66505091444901E-02 
2002	 8.59838475813418E-02 
2003	 8.46740949220576E-02 
2004	 8.29258413620365E-02 
2005	 8.14769440665632E-02 
2006	 8.07923405249147E-02 
2007	 0.080732869258027 
2008	 8.02787871618894E-02 
2009	 7.82850588187397E-02 
2010	 8.02280819779389E-02 
2011	 0.085258433942606 
2012	 8.84382215601088E-02 
2013	 9.37023725619059E-02 
2014	 9.93561682169194E-02 
2015	 0.100050844643503 
2016	 9.90244882632019E-02 
2017	 9.86322222266468E-02 
2018	 9.70437699119078E-02 
2019	 0.096795706440301 
2020	 0.096460508718398 
2021	 9.70400339226046E-02 
2022	 9.94959546507293E-02 
2023	 0.100465700050149 
2024	 0.101351616263548 
2025	 0.101715817058507 
2026	 0.100829235831372 
2027	 0.100481767461224 
2028	 9.98293756475891E-02 
2029	 9.96781818099261E-02 
2030	 0.100511840011409 
2031	 0.101443281065578 
2032	 0.10237093498753 
2033	 0.104009511284342 
2034	 0.105225046163836 
2035	 0.106091292954987 
2036	 0.106616630181505 
2037	 0.108114814977979 
2038	 0.108027621707365 
2039	 0.105483685284193 
2040	 0.105257019606562 
2041	 0.106993824302895 
2042	 0.105354670197633 
2043	 0.104601527548833 
2044	 0.103345912771729 
2045	 0.102415306135247 
2046	 9.87870772565725E-02 
2047	 9.94958524680974E-02 
2048	 0.103854358120816 
2049	 0.105986279750984 
2050	 0.109517150208607 
2051	 0.11111548787479 
2052	 0.111131553827627 
2053	 0.111519567870951 
2054	 0.111706455547634 
2055	 0.111237190192792 
2056	 0.111942704663861 
2057	 0.108278918329121 
2058	 0.104912400245697 
2059	 0.103649177652717 
2060	 0.102839638853276 
2061	 0.1036629308571 
2062	 0.103083324619321 
2063	 0.100702562403371 
2064	 0.102142425818351 
2065	 0.105317496622853 
2066	 0.107587771392017 
2067	 0.113991051550544 
2068	 0.117228495088811 
2069	 0.117207748519869 
2070	 0.117816168005988 
2071	 0.118349954743597 
2072	 0.118745418727062 
2073	 0.116587938852439 
2074	 0.114150801401652 
2075	 0.113727590145708 
2076	 0.112819653257892 
2077	 0.113690799600642 
2078	 0.117803869364343 
2079	 0.119501431387377 
2080	 0.121474419730192 
2081	 0.121624555153836 
2082	 0.119268412648933 
2083	 0.119352438587515 
2084	 0.120092533977938 
2085	 0.119584635121357 
2086	 0.119797914871951 
2087	 0.119828778937142 
2088	 0.116691288889847 
2089	 0.115357233885022 
2090	 0.116246058466189 
2091	 0.119831319224494 
2092	 0.121121266199861 
2093	 0.124648691530799 
2094	 0.124447451423484 
2095	 0.119230161163081 
2096	 0.118697875129231 
2097	 0.118944514404206 
2098	 0.119634814383926 
2099	 0.123660446999888 
2100	 0.126429435424772 
2101	 0.129739661697084 
2102	 0.130329900012368 
2103	 0.13050012318934 
2104	 0.128261426152179 
2105	 0.125665786356566 
2106	 0.118659728121578 
2107	 0.118419580019527 
2108	 0.120426708031053 
2109	 0.122847796876829 
2110	 0.130121174772446 
2111	 0.132984585627766 
2112	 0.135382490891344 
2113	 0.135608379588187 
2114	 0.133114901521358 
2115	 0.131124170567017 
2116	 0.125914799151007 
2117	 0.123716963902196 
2118	 0.124099968057184 
2119	 0.121712782304754 
2120	 0.123914531986014 
2121	 0.125873427150682 
2122	 0.128540482644436 
2123	 0.13327440282855 
2124	 0.135621595319039 
2125	 0.138119813892864 
2126	 0.138628787305591 
2127	 0.137560882963637 
2128	 0.135020901788092 
2129	 0.130033413537451 
2130	 0.126713425951214 
2131	 0.120976170303919 
2132	 0.118575104564211 
2133	 0.116700089549785 
2134	 0.117925683716055 
2135	 0.123913524814301 
2136	 0.128226034098336 
2137	 0.134348139038879 
2138	 0.141029832629103 
2139	 0.144928782583799 
2140	 0.147204169539251 
2141	 0.1481692514602 
2142	 0.146295653565519 
2143	 0.147310596478732 
2144	 0.149166690419394 
2145	 0.148351645121781 
2146	 0.147537710735244 
2147	 0.147122113505418 
2148	 0.144951040368948 
2149	 0.142712282830273 
2150	 0.139736763150666 
2151	 0.139433873269111 
2152	 0.139445873888651 
2153	 0.139235903159812 
2154	 0.140816709903443 
2155	 0.143733487593419 
2156	 0.145414796700935 
2157	 0.149027911300551 
2158	 0.151345232678581 
2159	 0.157301756020355 
2160	 0.156798182265791 
2161	 0.151540021284074 
2162	 0.148441068180009 
2163	 0.142765443244807 
2164	 0.139519172170881 
2165	 0.137677364763346 
2166	 0.135939460335287 
2167	 0.135607976373824 
2168	 0.133287792547107 
2169	 0.128680994555484 
2170	 0.127539194094179 
2171	 0.12725176001173 
2172	 0.127217881465531 
2173	 0.130087578095543 
2174	 0.13186070076528 
2175	 0.133236431132015 
2176	 0.134804123601504 
2177	 0.136357992619558 
2178	 0.13893189086466 
2179	 0.140658965009041 
2180	 0.142161018838354 
2181	 0.142486521724729 
2182	 0.141544326786058 
2183	 0.142105306653661 
2184	 0.142150251996525 
2185	 0.142656491813843 
2186	 0.145326986089869 
2187	 0.146272488710632 
2188	 0.146405906610196 
2189	 0.14590260958962 
2190	 0.143622743535365 
2191	 0.143054891927994 
2192	 0.141235928192304 
2193	 0.142021808988307 
2194	 0.146082998076783 
2195	 0.149552545658063 
2196	 0.152184421359515 
2197	 0.154323873189839 
2198	 0.153200744672702 
2199	 0.147924998134353 
2200	 0.146743397644235 
2201	 0.144542603948576 
2202	 0.14429920891527 
2203	 0.147216629416193 
2204	 0.148032317922677 
2205	 0.148577659892241 
2206	 0.149381393494317 
2207	 0.150065158337716 
2208	 0.150296101942987 
2209	 0.150762001953546 
2210	 0.150073050845271 
2211	 0.147235102889299 
2212	 0.14706051872165 
2213	 0.148381257502264 
2214	 0.148467981362182 
2215	 0.149412134721522 
2216	 0.150125537373087 
2217	 0.150176929427502 
2218	 0.14921434856746 
2219	 0.148497786199773 
2220	 0.148796426712764 
2221	 0.147743977487832 
2222	 0.144515747551282 
2223	 0.144262156407905 
2224	 0.145560737827665 
2225	 0.14473441907071 
2226	 0.144828170256234 
2227	 0.143604579839906 
2228	 0.13892524528417 
2229	 0.138577094649359 
2230	 0.140170413604612 
2231	 0.140989527610801 
2232	 0.145490352207471 
2233	 0.145922425656645 
2234	 0.143020005061717 
2235	 0.141675744342096 
2236	 0.137610365317579 
2237	 0.136589885583423 
2238	 0.138384712624815 
2239	 0.139556282956448 
2240	 0.142259791268255 
2241	 0.144855522304439 
2242	 0.144771925470293 
2243	 0.144632476553057 
2244	 0.142428713858854 
2245	 0.140041404377069 
2246	 0.140595087464772 
2247	 0.143257449937522 
2248	 0.143504770202759 
2249	 0.145773119348695 
2250	 0.143794166040759 
2251	 0.137019628088978 
2252	 0.133646666963379 
2253	 0.130238012702029 
2254	 0.127769009704816 
2255	 0.126304665073546 
2256	 0.124679135939435 
2257	 0.121133350904384 
2258	 0.121940154693557 
2259	 0.126023706869414 
2260	 0.129852974330698 
2261	 0.140867176426778 
2262	 0.143466896984677 
2263	 0.140992710016325 
2264	 0.138926865348515 
2265	 0.12869924023311 
2266	 0.124669326981768 
2267	 0.125969845799426 
2268	 0.12353331207095 
2269	 0.124380969495867 
2270	 0.125311641841947 
2271	 0.122521403109643 
2272	 0.125632617281508 
2273	 0.126860810363553 
2274	 0.129998999368083 
2275	 0.135143083961949 
2276	 0.133417023538348 
2277	 0.132421400674149 
2278	 0.129594814174257 
2279	 0.128447212846835 
2280	 0.126538662710418 
2281	 0.125540716636546 
2282	 0.125906001850209 
2283	 0.125399769346614 
2284	 0.122686836487048 
2285	 0.123609375597478 
2286	 0.12823395975935 
2287	 0.129147356684755 
2288	 0.131078595947213 
2289	 0.131215839462483 
2290	 0.128435731916491 
2291	 0.125229671785031 
2292	 0.119874738367875 
2293	 0.117349407643332 
2294	 0.113650380747199 
2295	 0.112160063672867 
2296	 0.117105956517513 
2297	 0.115447309035497 
2298	 0.110437892530071 
2299	 0.106972886169214 
2300	 9.88259133888114E-02 
2301	 9.60735826088483E-02 
2302	 9.60749666468319E-02 
2303	 9.30933608610621E-02 
2304	 9.21723427813064E-02 
2305	 8.73645720433335E-02 
2306	 8.84510858465831E-02 
2307	 9.09912603303022E-02 
2308	 9.33776112049513E-02 
2309	 0.10131770107667 
2310	 0.100722851255126 
2311	 0.104840796019351 
2312	 0.112007195060916 
2313	 0.112121961864327 
2314	 0.112454163588331 
2315	 0.107099570613761 
2316	 0.105294063046283 
2317	 0.100047798403742 
2318	 0.100312291443865 
2319	 0.107528908514621 
2320	 0.109756077575725 
2321	 0.110887242426686 
2322	 0.11173649934871 
2323	 0.109807586667388 
2324	 0.109707255585407 
2325	 0.109707150295198 
2326	 0.110201509995586 
2327	 0.113434978500476 
2328	 0.114821633616727 
2329	 0.116972428522681 
2330	 0.114238257779031 
2331	 0.108650430764928 
2332	 0.10334327382058 
2333	 8.83848219975275E-02 
2334	 8.74686715292183E-02 
2335	 9.43311000529368E-02 
2336	 9.90569182323162E-02 
2337	 0.115437499915653 
2338	 0.123172160453729 
2339	 0.128189273632329 
2340	 0.127963378019295 
2341	 0.120273160031282 
2342	 0.114665187760634 
2343	 0.106635899955125 
2344	 9.66442008086627E-02 
2345	 0.102522943851963 
2346	 0.102522318925773 
2347	 0.10807068081105 
2348	 0.11649094389834 
2349	 0.10544608869694 
2350	 0.107559691784781 
2351	 0.106426882647452 
2352	 0.102900283273716 
2353	 0.10874434556848 
2354	 0.103809141048139 
2355	 0.103203968777592 
2356	 0.106367574924732 
2357	 0.104865054391132 
2358	 0.105054232750371 
2359	 0.100787992117561 
2360	 9.18581705785739E-02 
2361	 8.94883595087035E-02 
2362	 0.093889756286618 
2363	 9.70464150306985E-02 
2364	 9.63610453653516E-02 
2365	 9.48276594160623E-02 
2366	 9.35716086786813E-02 
2367	 0.100591836755501 
2368	 0.110988001170003 
2369	 0.119021636806857 
2370	 0.131320934488864 
2371	 0.135707373611625 
2372	 0.132412554861925 
2373	 0.128292721432683 
2374	 0.118147457092853 
2375	 0.105834944535934 
2376	 0.101384753219075 
2377	 0.101493200785236 
2378	 0.102275270175084 
2379	 0.102280837449245 
2380	 0.094904241251898 
2381	 9.32699039885175E-02 
2382	 9.65131231261151E-02 
2383	 0.102673855887184 
2384	 0.120054534270447 
2385	 0.129130292792896 
2386	 0.136528814043273 
2387	 0.134366296727052 
2388	 0.122176483656055 
2389	 0.11234238551902 
2390	 9.84536152532911E-02 
2391	 9.28642808652935E-02 
2392	 8.96998221914146E-02 
2393	 9.17419394503016E-02 
2394	 9.70522333273427E-02 
2395	 0.101258679961133 
2396	 0.108791483495811 
2397	 0.112128386194976 
2398	 0.121866766505975 
2399	 0.114698017882938 
2400	 9.61992859476161E-02 
2401	 8.62093220821899E-02 
2402	 0.061793928244257 
2403	 0.060217460388595 
2404	 7.77134046889974E-02 
2405	 8.31533132334918E-02 
2406	 9.60489480945539E-02 
2407	 9.98166652663058E-02 
2408	 9.32584770135433E-02 
2409	 8.49591212070925E-02 
2410	 6.93370941869541E-02 
2411	 6.37520104750638E-02 
2412	 6.23272910132976E-02 
2413	 6.17533696129472E-02 
2414	 6.95738226652441E-02 
2415	 7.17402145228735E-02 
2416	 6.42282320171041E-02 
2417	 6.26103510113832E-02 
2418	 6.98961590866433E-02 
2419	 7.04373303909323E-02 
2420	 0.071123296128367 
2421	 7.52212096454395E-02 
2422	 6.92338856504577E-02 
2423	 7.87743627511283E-02 
2424	 9.74856542978784E-02 
2425	 9.80302430979361E-02 
2426	 0.106166475396619 
2427	 0.113896658509748 
2428	 0.11446699299762 
2429	 0.110712902645614 
2430	 0.101065894117292 
2431	 9.66234006146507E-02 
2432	 8.50102813837071E-02 
2433	 7.14825410219688E-02 
2434	 7.13953263008237E-02 
2435	 6.25969502372831E-02 
2436	 3.52502905958224E-02 
2437	 2.60096916408777E-02 
2438	 2.76762487719065E-02 
2439	 1.18612667156137E-02 
2440	-1.53983140408805E-02 
2441	-1.08941214078977E-02 
2442	 7.38689131574464E-03 
2443	 5.97716369964198E-02 
2444	 8.90965405665562E-02 
2445	 9.57544762006688E-02 
2446	 9.09503340079051E-02 
2447	 8.75263221697441E-02 
2448	 9.06757246384473E-02 
2449	 9.89229062455613E-02 
2450	 0.114548883151446 
2451	 9.65302307566513E-02 
2452	 7.77643758883069E-02 
2453	 6.89488126372096E-02 
2454	 6.13015763484058E-02 
2455	 6.44093191414488E-02 
2456	 5.58374623024428E-02 
2457	 6.48650549871627E-02 
2458	 6.42545841880416E-02 
2459	 7.06378682409537E-02 
2460	 0.069373625151962 
2461	 2.70168421754899E-02 
2462	 5.61787537498645E-03 
2463	-3.48450877606684E-02 
2464	-5.67702437561918E-02 
2465	-4.23606711140085E-02 
2466	-3.41569002906078E-02 
2467	-1.90975701883614E-02 
2468	-4.75964313542103E-03 
2469	 1.99296624738816E-02 
2470	 3.93548992509754E-02 
2471	 6.69570456258519E-02 
2472	 8.56102418616119E-02 
2473	 9.41937941348894E-02 
2474	 0.108098623957629 
2475	 0.085358082649953 
2476	 5.48054689540279E-02 
2477	 2.67182590683038E-02 
2478	-1.52945429317102E-03 
2479	 0.015260352956789 
2480	 2.19376741918932E-02 
2481	 1.83405331946984E-02 
2482	-2.1166614394342E-03 
2483	-6.93418379817341E-02 
2484	-7.41061846999347E-02 
2485	-4.30351315474772E-02 
2486	-1.20554740562913E-02 
2487	 2.31397243967301E-02 
2488	 1.91292980497132E-02 
2489	 1.11908173006047E-03 
2490	-1.00841564536273E-02 
2491	-1.75684000480639E-03 
2492	 1.45284003767794E-02 
2493	 2.16135383998398E-02 
2494	 3.46591274188605E-02 
2495	 6.93204457921871E-02 
2496	 8.92995829172868E-02 
2497	 7.14421007492409E-02 
2498	 9.26553132259404E-02 
2499	 8.06105850526858E-02 
2500	 2.90550935305219E-02 
