Wavelength	TRI_ARB_099_264_210422_L00003.asd
350	-0.375489746110387 
351	-0.573908005515763 
352	-0.422486003220234 
353	 0.185368517098003 
354	-4.26632740912794E-02 
355	-0.150825782843754 
356	 1.54147640319799E-02 
357	 2.62971291554648E-02 
358	 3.75372110185305E-02 
359	-6.66008998248611E-02 
360	-0.287567080290423 
361	-4.91927648164392E-02 
362	 5.47990561423271E-02 
363	 4.24412942624324E-02 
364	 5.73443327659902E-02 
365	 8.50864758432719E-02 
366	 0.074286880634691 
367	 3.63098123728893E-02 
368	 4.70038226032351E-02 
369	 7.22859813966741E-02 
370	 9.13578421827688E-02 
371	 8.75184687525173E-02 
372	 5.88935658654714E-02 
373	 3.47278917891149E-02 
374	 0.02750515773745 
375	 4.05354522620121E-02 
376	 6.64864160456631E-02 
377	 8.73858527844212E-02 
378	 8.82681892150682E-02 
379	 6.08734969929214E-02 
380	 6.81831223412605E-02 
381	 8.28331947869602E-02 
382	 7.53387085731303E-02 
383	 6.21638555360288E-02 
384	 6.77488250288099E-02 
385	 8.44242173140514E-02 
386	 9.12222034559116E-02 
387	 9.52875269755027E-02 
388	 8.42741892659845E-02 
389	 6.68931530134431E-02 
390	 0.072618858868769 
391	 8.38010858052717E-02 
392	 0.084163575707065 
393	 7.14409304221696E-02 
394	 7.79673801407437E-02 
395	 8.69768502081783E-02 
396	 9.06421676617151E-02 
397	 8.75232430317856E-02 
398	 9.19776896528549E-02 
399	 9.04438914536116E-02 
400	 8.59750071731562E-02 
401	 9.93751293211049E-02 
402	 8.46649971166343E-02 
403	 7.57958381287142E-02 
404	 9.28898448628128E-02 
405	 8.66053578651722E-02 
406	 7.54138322234267E-02 
407	 7.40068573299613E-02 
408	 8.83698064712531E-02 
409	 8.04493874846244E-02 
410	 7.78011812487508E-02 
411	 8.74688725767481E-02 
412	 8.96057416987246E-02 
413	 8.75547333475461E-02 
414	 8.37466356503744E-02 
415	 0.08010523130729 
416	 7.57207556826615E-02 
417	 7.99118262484451E-02 
418	 8.73380522356585E-02 
419	 0.087975249599314 
420	 0.091083629718977 
421	 9.11396838165745E-02 
422	 8.81512635114379E-02 
423	 8.98911793333229E-02 
424	 8.91021273607584E-02 
425	 8.79967365097109E-02 
426	 0.089088073927151 
427	 8.93081012125553E-02 
428	 0.091357880350033 
429	 9.41317033985278E-02 
430	 9.48910976459286E-02 
431	 9.46001755477278E-02 
432	 9.41687570045448E-02 
433	 9.42492433682986E-02 
434	 9.51866530859806E-02 
435	 9.60045545701656E-02 
436	 9.62366445304896E-02 
437	 9.62920046666749E-02 
438	 9.96352700290407E-02 
439	 9.81911176141589E-02 
440	 9.60609483457715E-02 
441	 0.103827424877165 
442	 0.103847953663243 
443	 0.102186955498582 
444	 0.103378833064205 
445	 0.103180551790352 
446	 0.101581899142653 
447	 0.100243126964306 
448	 0.1010448133147 
449	 0.103785688500084 
450	 0.104089995228117 
451	 0.102612368052061 
452	 0.104444559954656 
453	 0.104285293396838 
454	 0.104637888443665 
455	 0.106620150833843 
456	 0.104108767503294 
457	 0.102586145786244 
458	 0.103372065542295 
459	 0.105779200643165 
460	 0.109882598939912 
461	 0.109111025809814 
462	 0.104460033126611 
463	 0.106719162835084 
464	 0.106344251751929 
465	 0.104989920016726 
466	 0.105406023742029 
467	 0.104544612785652 
468	 0.104163449059003 
469	 0.105299727325411 
470	 0.10795256191471 
471	 0.107309934864783 
472	 0.104573649461371 
473	 0.102445831398506 
474	 0.104892756870869 
475	 0.104764090536354 
476	 0.104612957309892 
477	 0.108037931070087 
478	 0.107901590909502 
479	 0.106026123162655 
480	 0.104358507473327 
481	 0.104439606673199 
482	 0.103737105678848 
483	 0.103173075496549 
484	 0.103649821796745 
485	 0.104634031325636 
486	 0.103787952448524 
487	 0.103597593611436 
488	 0.107346196478497 
489	 0.106668378599002 
490	 0.105843715817924 
491	 0.106349666932573 
492	 0.104429273056863 
493	 0.105035617934606 
494	 0.106205236967317 
495	 0.105558483742816 
496	 0.106211172583428 
497	 0.105921674620923 
498	 0.105137280834617 
499	 0.105952709113322 
500	 0.105284256689963 
501	 0.105433235226168 
502	 0.107160558678987 
503	 0.106452577183183 
504	 0.107764095220314 
505	 0.109225981987141 
506	 0.108057520791753 
507	 0.109980369282758 
508	 0.111282524468834 
509	 0.110728352578233 
510	 0.110364798921798 
511	 0.111497226043738 
512	 0.112956085872954 
513	 0.113520048477174 
514	 0.113483365118256 
515	 0.114507084977845 
516	 0.116363723648875 
517	 0.117763440414186 
518	 0.118793991804986 
519	 0.120341930529655 
520	 0.122480387781054 
521	 0.123817767206872 
522	 0.124245494792585 
523	 0.124902251106924 
524	 0.126717345890919 
525	 0.127444638764041 
526	 0.128848160051112 
527	 0.131195419890174 
528	 0.133215319617386 
529	 0.134044597609038 
530	 0.134790935887496 
531	 0.136182348491917 
532	 0.136861335944926 
533	 0.137406936009533 
534	 0.138041294095316 
535	 0.138818343650029 
536	 0.139930558978678 
537	 0.140324701602294 
538	 0.140042890699986 
539	 0.14093546467167 
540	 0.141302605667748 
541	 0.141555591259734 
542	 0.142317581331314 
543	 0.142426834065186 
544	 0.142444791268286 
545	 0.142784977102927 
546	 0.143618084594255 
547	 0.143929010772026 
548	 0.144063555139766 
549	 0.144278111615322 
550	 0.143923288918728 
551	 0.143483817333485 
552	 0.143524019007617 
553	 0.144255068720719 
554	 0.142967058961958 
555	 0.141923477658549 
556	 0.141976372604958 
557	 0.141293925802009 
558	 0.140572144451812 
559	 0.139678174690524 
560	 0.138563948427349 
561	 0.13840385942787 
562	 0.137835537686992 
563	 0.136721035216643 
564	 0.135957739176222 
565	 0.135280091103036 
566	 0.134268599228616 
567	 0.132971146320393 
568	 0.132652802160726 
569	 0.132425857050921 
570	 0.131594902165534 
571	 0.129919974481637 
572	 0.12986131008899 
573	 0.129376283236873 
574	 0.127696355501682 
575	 0.126344887267877 
576	 0.12533207629778 
577	 0.124753525034236 
578	 0.124499189713436 
579	 0.123859719098474 
580	 0.122914965593728 
581	 0.122107473053234 
582	 0.122013808209013 
583	 0.121139913861856 
584	 0.120130816392794 
585	 0.119619824030009 
586	 0.119569785631213 
587	 0.118629644378481 
588	 0.117468288475213 
589	 0.117394659853037 
590	 0.117900135490298 
591	 0.118058075808527 
592	 0.117402341152937 
593	 0.116082208557026 
594	 0.115989695139292 
595	 0.115869296846009 
596	 0.114706296264295 
597	 0.115387524064877 
598	 0.115918711671623 
599	 0.115825116540969 
600	 0.115688144466307 
601	 0.114902113645187 
602	 0.11440354159605 
603	 0.114406775893547 
604	 0.113162635494347 
605	 0.113250055672741 
606	 0.11364121692095 
607	 0.112521021729003 
608	 0.111744703153365 
609	 0.111375419667539 
610	 0.111031642222435 
611	 0.110010596852683 
612	 0.109910196552783 
613	 0.109781656197043 
614	 0.108758880096792 
615	 0.108003408931569 
616	 0.10751961892276 
617	 0.10705507469526 
618	 0.106324046801101 
619	 0.106485362665001 
620	 0.106579432022697 
621	 0.106174291938797 
622	 0.106187379034201 
623	 0.105848595590272 
624	 0.105333243697915 
625	 0.105100009314395 
626	 0.105548831964467 
627	 0.10505769708025 
628	 0.103833593845357 
629	 0.103798018788618 
630	 0.104460371519812 
631	 0.104601727937481 
632	 0.103851893943112 
633	 0.104504580140508 
634	 0.104609471871964 
635	 0.103927777510376 
636	 0.103153247879541 
637	 0.103309835071558 
638	 0.103153840310166 
639	 0.102328121593313 
640	 0.101991851622467 
641	 0.101858910509725 
642	 0.101670024090111 
643	 0.101367512875567 
644	 0.10184868331677 
645	 0.101313243992339 
646	 0.100071536823984 
647	 9.98603760111665E-02 
648	 9.93601058081226E-02 
649	 9.88198819425988E-02 
650	 9.86254183566704E-02 
651	 9.90582650633133E-02 
652	 9.91957686273047E-02 
653	 9.85758629026015E-02 
654	 9.73179147521041E-02 
655	 0.09737161222462 
656	 9.75562585208935E-02 
657	 9.72216714174236E-02 
658	 9.64951806010589E-02 
659	 9.63986946547079E-02 
660	 9.62284935093178E-02 
661	 9.54937815032873E-02 
662	 9.52935271527895E-02 
663	 9.52746340422129E-02 
664	 9.51023625400845E-02 
665	 9.45575166548684E-02 
666	 9.43978203945818E-02 
667	 9.38786332711036E-02 
668	 9.30616915719664E-02 
669	 9.32767149655423E-02 
670	 9.37229491367838E-02 
671	 9.38645355151657E-02 
672	 9.35765291591143E-02 
673	 9.38693721424447E-02 
674	 9.46641094080698E-02 
675	 9.54081960629092E-02 
676	 9.53960451856773E-02 
677	 9.58424841266679E-02 
678	 9.65642773681755E-02 
679	 9.71322752470286E-02 
680	 9.69687212468213E-02 
681	 9.75029386843674E-02 
682	 9.84644951255415E-02 
683	 9.92263277560219E-02 
684	 0.100474315651884 
685	 0.101086264120553 
686	 0.10130622485425 
687	 0.102497769454546 
688	 0.103616319953587 
689	 0.104558832765402 
690	 0.105660652921344 
691	 0.10801201459158 
692	 0.109520099831812 
693	 0.111014550249653 
694	 0.114065054891202 
695	 0.117601954789559 
696	 0.120942492270942 
697	 0.124321064010975 
698	 0.12880751427873 
699	 0.13377829318932 
700	 0.139499902162443 
701	 0.145790643050178 
702	 0.150786989616072 
703	 0.156996265439016 
704	 0.164304144104319 
705	 0.171513916015978 
706	 0.178815834148467 
707	 0.186546990433415 
708	 0.19468079260041 
709	 0.202750165577349 
710	 0.210992051283872 
711	 0.219374239057362 
712	 0.228042334399643 
713	 0.237937417733166 
714	 0.247196652329273 
715	 0.256118283050081 
716	 0.265906106552061 
717	 0.275919914028816 
718	 0.285869304511697 
719	 0.295716267794573 
720	 0.305719504974184 
721	 0.315890413344798 
722	 0.326071472629937 
723	 0.336041614321418 
724	 0.345611248804119 
725	 0.355192777689255 
726	 0.36480399424035 
727	 0.374185636846775 
728	 0.383043256480374 
729	 0.391422485939854 
730	 0.399469291118575 
731	 0.407427009873392 
732	 0.415041936665715 
733	 0.421919327994094 
734	 0.428117239963144 
735	 0.435140217803198 
736	 0.441146874283328 
737	 0.44639116298035 
738	 0.451923059416131 
739	 0.456471515245599 
740	 0.460758829591861 
741	 0.464935867052687 
742	 0.468335598308568 
743	 0.47191521864834 
744	 0.475182468988914 
745	 0.47780214368252 
746	 0.48075604308004 
747	 0.483061630157334 
748	 0.484872300784731 
749	 0.486762469775995 
750	 0.488654349017071 
751	 0.489821899753212 
752	 0.490523466638784 
753	 0.491958171099436 
754	 0.492724758829476 
755	 0.493638221722829 
756	 0.495081436060042 
757	 0.495520184727521 
758	 0.496020015701608 
759	 0.496667767137533 
760	 0.497172366796368 
761	 0.497181188055521 
762	 0.497152732577963 
763	 0.497429682475385 
764	 0.498093216837183 
765	 0.497757464565983 
766	 0.497470583072344 
767	 0.49788089866852 
768	 0.498326012974039 
769	 0.497964967738769 
770	 0.497371726245789 
771	 0.497362546030609 
772	 0.497904626413012 
773	 0.498091090042778 
774	 0.497826020164249 
775	 0.497571806808837 
776	 0.497648841135844 
777	 0.497788668121565 
778	 0.497770462012125 
779	 0.497538376449527 
780	 0.497266082022274 
781	 0.497213250325947 
782	 0.497370832645348 
783	 0.496969038941697 
784	 0.496802763438373 
785	 0.497061069705872 
786	 0.49749630144452 
787	 0.497049529537125 
788	 0.496905629382055 
789	 0.497119335333663 
790	 0.496773925369 
791	 0.496729588550361 
792	 0.496925266837743 
793	 0.497080266241162 
794	 0.49678141405105 
795	 0.497031300108371 
796	 0.497310501189293 
797	 0.4970378635971 
798	 0.496861577887425 
799	 0.496903181505295 
800	 0.497003608813648 
801	 0.496896023029375 
802	 0.496691377270328 
803	 0.49667696009018 
804	 0.496849734936709 
805	 0.496938248509484 
806	 0.497470011945049 
807	 0.497450252260971 
808	 0.496674918107012 
809	 0.496828064160896 
810	 0.49666169083388 
811	 0.495985749370581 
812	 0.495304573307702 
813	 0.496439261918302 
814	 0.497019844536406 
815	 0.496834012323417 
816	 0.496781838204464 
817	 0.496611797171939 
818	 0.496582516463803 
819	 0.496717727361693 
820	 0.496788374467435 
821	 0.496735537821147 
822	 0.496419268279515 
823	 0.495969272654718 
824	 0.495952868632664 
825	 0.495755850983205 
826	 0.495915477382802 
827	 0.496599057900695 
828	 0.4959383705396 
829	 0.495496481157584 
830	 0.495708468046654 
831	 0.496241386490504 
832	 0.495674497642036 
833	 0.495561817182011 
834	 0.496070663132196 
835	 0.49618840636719 
836	 0.495554332560288 
837	 0.495090705106922 
838	 0.495114624060689 
839	 0.494986223778167 
840	 0.49517964548202 
841	 0.495150019782711 
842	 0.494736840286112 
843	 0.494984016933019 
844	 0.495152920345212 
845	 0.495314668739206 
846	 0.495565573416711 
847	 0.495210964174478 
848	 0.494972231560411 
849	 0.495131385621814 
850	 0.495500226359558 
851	 0.494738693188261 
852	 0.494507617232773 
853	 0.494812777059943 
854	 0.494376951332354 
855	 0.493916915304798 
856	 0.494331362639549 
857	 0.495271519044442 
858	 0.495015403974036 
859	 0.494932799157652 
860	 0.494888286303436 
861	 0.494635155703239 
862	 0.494230799095404 
863	 0.494051314374276 
864	 0.493919891982085 
865	 0.493694747001324 
866	 0.493811950614149 
867	 0.493877147551196 
868	 0.494312835203555 
869	 0.495258777119396 
870	 0.494479526319385 
871	 0.493593486377616 
872	 0.493376334623648 
873	 0.493757989636127 
874	 0.493259379099692 
875	 0.493258918086328 
876	 0.493882333065589 
877	 0.494187567166413 
878	 0.49497818646672 
879	 0.494775951168402 
880	 0.493634912846516 
881	 0.493437559629825 
882	 0.492484024859479 
883	 0.492643521399212 
884	 0.494127176773133 
885	 0.493826593851341 
886	 0.493171668857063 
887	 0.492703121555894 
888	 0.492730779466142 
889	 0.493491392202742 
890	 0.492656070059719 
891	 0.492039198866868 
892	 0.493135944129316 
893	 0.49278729707868 
894	 0.492310455522418 
895	 0.492204048981631 
896	 0.492432266454436 
897	 0.491948993017886 
898	 0.492228191495932 
899	 0.493157174574475 
900	 0.493714143984706 
901	 0.492814552122751 
902	 0.491588825406038 
903	 0.491259096881133 
904	 0.492400197725149 
905	 0.492328521496593 
906	 0.491967433022899 
907	 0.491457754309457 
908	 0.490402289053583 
909	 0.490462819009452 
910	 0.49106382477713 
911	 0.491297696332711 
912	 0.490483976084737 
913	 0.490548599266556 
914	 0.490804783840037 
915	 0.490724885194742 
916	 0.49037838087345 
917	 0.489661126544622 
918	 0.489326953256474 
919	 0.489553260141132 
920	 0.489607595331497 
921	 0.489096309354976 
922	 0.488743308888518 
923	 0.488824633523359 
924	 0.488655574620352 
925	 0.489237215115719 
926	 0.489694537098876 
927	 0.489428385817123 
928	 0.488979098318189 
929	 0.488781528031994 
930	 0.489050088370234 
931	 0.489285739714172 
932	 0.487942068145139 
933	 0.486690329635251 
934	 0.48695922611932 
935	 0.488347313928836 
936	 0.4871130001238 
937	 0.488360574176763 
938	 0.489705730221696 
939	 0.489083390213205 
940	 0.489547302853827 
941	 0.487545848821178 
942	 0.485399691893887 
943	 0.485137357554094 
944	 0.484438618524507 
945	 0.483878228938539 
946	 0.483978333908326 
947	 0.484419935292212 
948	 0.482972877714162 
949	 0.482888056711629 
950	 0.483660825144757 
951	 0.483744666152079 
952	 0.4819860690902 
953	 0.479675063505755 
954	 0.47811752231423 
955	 0.477979959143805 
956	 0.478571680821033 
957	 0.477241254412649 
958	 0.47597858085866 
959	 0.476207934155871 
960	 0.475214258185062 
961	 0.475718032778755 
962	 0.47571062945192 
963	 0.473666230460702 
964	 0.471488681798424 
965	 0.473350803669064 
966	 0.47445177614461 
967	 0.472010001280138 
968	 0.47116872127997 
969	 0.472286920906848 
970	 0.472886149220414 
971	 0.472640570782441 
972	 0.475553535806911 
973	 0.476138359776064 
974	 0.473945410952625 
975	 0.470679318833812 
976	 0.469210930348808 
977	 0.470046450932155 
978	 0.471251996217391 
979	 0.471772153236842 
980	 0.472197708205498 
981	 0.470752636297242 
982	 0.469326827303626 
983	 0.46941696831405 
984	 0.470882068626789 
985	 0.46941462831667 
986	 0.468937825937699 
987	 0.470626813009175 
988	 0.472115800511298 
989	 0.471828993047297 
990	 0.469340711126323 
991	 0.467997362512933 
992	 0.471136819262202 
993	 0.468064385185448 
994	 0.470487941656794 
995	 0.474467881808359 
996	 0.470400722055136 
997	 0.467969070486511 
998	 0.46789027614106 
999	 0.470872778704423 
1000	 0.47531123721882 
1001	 0.481407499903689 
1002	 0.48196272361475 
1003	 0.481891736669855 
1004	 0.481617761706808 
1005	 0.481813150288969 
1006	 0.482443685082041 
1007	 0.481991971240723 
1008	 0.481259422019122 
1009	 0.480918782014 
1010	 0.480436391055986 
1011	 0.48021515140135 
1012	 0.480512082171438 
1013	 0.48222387820591 
1014	 0.48326092034864 
1015	 0.482580545646985 
1016	 0.482067376320436 
1017	 0.481838681014999 
1018	 0.480870480314701 
1019	 0.480443092978904 
1020	 0.48213480528506 
1021	 0.483821409975595 
1022	 0.484810671131305 
1023	 0.485725494603572 
1024	 0.486077465557163 
1025	 0.485137617363794 
1026	 0.484129860462735 
1027	 0.484522282905537 
1028	 0.48517523655955 
1029	 0.484680938609444 
1030	 0.483654849378572 
1031	 0.482950759525293 
1032	 0.482756441372985 
1033	 0.483471915253104 
1034	 0.484487594753717 
1035	 0.485011277464329 
1036	 0.484825859131511 
1037	 0.484855645323563 
1038	 0.484708718887732 
1039	 0.485519165165811 
1040	 0.485606250105955 
1041	 0.485767560856864 
1042	 0.486341195143579 
1043	 0.486416416415544 
1044	 0.486820124259022 
1045	 0.487476131406048 
1046	 0.48790627439731 
1047	 0.487412359611989 
1048	 0.487414461300457 
1049	 0.487571942618252 
1050	 0.487737799858685 
1051	 0.487899175028054 
1052	 0.488449866066373 
1053	 0.488987555299849 
1054	 0.48854882685773 
1055	 0.488085339694852 
1056	 0.487383377467981 
1057	 0.486572788741739 
1058	 0.486178723911132 
1059	 0.48539866752886 
1060	 0.485151086073965 
1061	 0.485255350771168 
1062	 0.485560386250005 
1063	 0.485835280851821 
1064	 0.486557326021278 
1065	 0.487298113251213 
1066	 0.487857612170333 
1067	 0.4880621609517 
1068	 0.488551366191396 
1069	 0.48880536699917 
1070	 0.488731315579655 
1071	 0.488363199774278 
1072	 0.487761725324999 
1073	 0.486361223040378 
1074	 0.486184028154104 
1075	 0.48601341584835 
1076	 0.48631858703927 
1077	 0.487617748000466 
1078	 0.4888257140105 
1079	 0.488920391994959 
1080	 0.489296791635714 
1081	 0.489130965315867 
1082	 0.488547636783635 
1083	 0.487940577723855 
1084	 0.487427913458185 
1085	 0.487135765063203 
1086	 0.486637447147669 
1087	 0.486429949820067 
1088	 0.486744637166744 
1089	 0.486833045064886 
1090	 0.48698135243538 
1091	 0.487235630835666 
1092	 0.48748284691521 
1093	 0.487709926885512 
1094	 0.488044419298796 
1095	 0.488066937174221 
1096	 0.488449687465359 
1097	 0.488155724517565 
1098	 0.48759056114981 
1099	 0.48646087846731 
1100	 0.485745775832896 
1101	 0.48454407582141 
1102	 0.484175957618869 
1103	 0.484680797283473 
1104	 0.484658532338373 
1105	 0.484595771227947 
1106	 0.484662276592881 
1107	 0.484725141052886 
1108	 0.484440755139365 
1109	 0.484180115572396 
1110	 0.484060344691001 
1111	 0.484209527454891 
1112	 0.484619771134849 
1113	 0.484547288929167 
1114	 0.48458974089312 
1115	 0.484490048898334 
1116	 0.483768317266425 
1117	 0.483327782328249 
1118	 0.483236320749104 
1119	 0.482990490991066 
1120	 0.482577210220749 
1121	 0.482318072984128 
1122	 0.481660834503679 
1123	 0.481090159194314 
1124	 0.480563016236631 
1125	 0.479916282994369 
1126	 0.479194322802989 
1127	 0.478569212859711 
1128	 0.477852130234542 
1129	 0.476887969869989 
1130	 0.476062021402076 
1131	 0.475709984387683 
1132	 0.474760665598077 
1133	 0.473530715542651 
1134	 0.471990253321974 
1135	 0.470488021794463 
1136	 0.469147975310443 
1137	 0.467885907311998 
1138	 0.46696890396654 
1139	 0.465677424590021 
1140	 0.46421461273097 
1141	 0.462834012366904 
1142	 0.461410531031969 
1143	 0.459956140188381 
1144	 0.458566937654047 
1145	 0.457021172571036 
1146	 0.455204731542571 
1147	 0.453641136714155 
1148	 0.452174244949972 
1149	 0.450569208850906 
1150	 0.449296824065117 
1151	 0.448405583024934 
1152	 0.447122793949484 
1153	 0.445710113911986 
1154	 0.444504392443937 
1155	 0.443184505510783 
1156	 0.44197047149032 
1157	 0.440992256074579 
1158	 0.439992745673066 
1159	 0.438721218833737 
1160	 0.437867589653166 
1161	 0.437511157954285 
1162	 0.436896170467614 
1163	 0.436341322719139 
1164	 0.435834628588635 
1165	 0.435136668992757 
1166	 0.434103740482151 
1167	 0.433440614611806 
1168	 0.432807851365933 
1169	 0.432371222411008 
1170	 0.432373983609788 
1171	 0.431884721554434 
1172	 0.431210051723917 
1173	 0.430657759171476 
1174	 0.42990093119246 
1175	 0.429223621377118 
1176	 0.428709559731897 
1177	 0.428162475308765 
1178	 0.427589545362256 
1179	 0.426906586652464 
1180	 0.426285837974348 
1181	 0.425679262161998 
1182	 0.425189306453931 
1183	 0.42469673004413 
1184	 0.424268222602093 
1185	 0.42396276954953 
1186	 0.423682351026586 
1187	 0.423441839480483 
1188	 0.423177606843153 
1189	 0.422785708288395 
1190	 0.422728339155782 
1191	 0.423070021142514 
1192	 0.423039188514733 
1193	 0.422954964699854 
1194	 0.423063594148705 
1195	 0.422890910503778 
1196	 0.422200545430537 
1197	 0.422033371889073 
1198	 0.42208593036421 
1199	 0.422106460438148 
1200	 0.422337428445426 
1201	 0.422355551578348 
1202	 0.422243879306614 
1203	 0.422266058113678 
1204	 0.422056254386529 
1205	 0.422229745294967 
1206	 0.422915775671357 
1207	 0.423277895721686 
1208	 0.423753695860481 
1209	 0.423999586256038 
1210	 0.4243385765736 
1211	 0.424353651422062 
1212	 0.424834789193183 
1213	 0.425783193451742 
1214	 0.426209583142376 
1215	 0.426454174434153 
1216	 0.426895447724076 
1217	 0.427063660448274 
1218	 0.427546281378275 
1219	 0.428576651247499 
1220	 0.429193460703574 
1221	 0.429492393754747 
1222	 0.430054146750233 
1223	 0.430758633413746 
1224	 0.431270522838736 
1225	 0.431672383383339 
1226	 0.432229203955901 
1227	 0.432511569222856 
1228	 0.432303819384529 
1229	 0.432566229814805 
1230	 0.433013565265837 
1231	 0.433371662405214 
1232	 0.433919255941304 
1233	 0.434289070037382 
1234	 0.434478293633826 
1235	 0.434797696463578 
1236	 0.435112572773163 
1237	 0.435416714221383 
1238	 0.435675825596476 
1239	 0.43620937316107 
1240	 0.436481575884759 
1241	 0.436482933595084 
1242	 0.436853379378625 
1243	 0.437190425739923 
1244	 0.437810325959394 
1245	 0.438972038445822 
1246	 0.439524649248152 
1247	 0.440074495338776 
1248	 0.440283942156455 
1249	 0.43985475154826 
1250	 0.4398962294017 
1251	 0.439932502701217 
1252	 0.440035255418436 
1253	 0.440487454600818 
1254	 0.440669427665379 
1255	 0.440760394033177 
1256	 0.440788219461819 
1257	 0.440437213527641 
1258	 0.440304114474561 
1259	 0.440381164439703 
1260	 0.440584427154733 
1261	 0.440657717227804 
1262	 0.441101034135027 
1263	 0.441043837354658 
1264	 0.440547495698448 
1265	 0.440282447229221 
1266	 0.439759995222756 
1267	 0.439624709657168 
1268	 0.439613471131598 
1269	 0.439741764155422 
1270	 0.440416844222656 
1271	 0.440697818782128 
1272	 0.440887959480731 
1273	 0.441091602898912 
1274	 0.440958878594228 
1275	 0.440828463144464 
1276	 0.440689732055895 
1277	 0.440565617422216 
1278	 0.440348086029606 
1279	 0.439942285732606 
1280	 0.439755640556985 
1281	 0.439382407279347 
1282	 0.439485433780711 
1283	 0.440359340611767 
1284	 0.440490456626022 
1285	 0.44055844664354 
1286	 0.44046030049549 
1287	 0.439754297949686 
1288	 0.439171633162095 
1289	 0.438432837575402 
1290	 0.438163364869451 
1291	 0.437806791559975 
1292	 0.437372692377655 
1293	 0.437008058989127 
1294	 0.436806506461551 
1295	 0.436490616583463 
1296	 0.436119898736218 
1297	 0.435717596078147 
1298	 0.435321817160772 
1299	 0.434702839456918 
1300	 0.433759724850093 
1301	 0.433214022837904 
1302	 0.43306965591035 
1303	 0.432424910116853 
1304	 0.431524218439252 
1305	 0.430797685969628 
1306	 0.429722066914758 
1307	 0.428927911761461 
1308	 0.428451341615775 
1309	 0.42803585435164 
1310	 0.427413773340805 
1311	 0.426464550587048 
1312	 0.425495431122742 
1313	 0.424853742415687 
1314	 0.423992888438881 
1315	 0.423175261060387 
1316	 0.422070049885764 
1317	 0.4206574116279 
1318	 0.419379510393397 
1319	 0.417950843381063 
1320	 0.416695716582523 
1321	 0.415831345291545 
1322	 0.414538161338449 
1323	 0.412838406900798 
1324	 0.41146304573239 
1325	 0.410166192522158 
1326	 0.408569992305582 
1327	 0.407441548081777 
1328	 0.406248182468398 
1329	 0.404626922911178 
1330	 0.403253974025278 
1331	 0.401863765359337 
1332	 0.400383060291451 
1333	 0.399071796809713 
1334	 0.397989961203173 
1335	 0.396592639850319 
1336	 0.395198958533072 
1337	 0.393612006835674 
1338	 0.391589869069694 
1339	 0.389939499826047 
1340	 0.3885613042831 
1341	 0.386918906363081 
1342	 0.385167111857044 
1343	 0.383538052709116 
1344	 0.381811367944453 
1345	 0.379952223350952 
1346	 0.378650521980852 
1347	 0.377505717469493 
1348	 0.376126053867173 
1349	 0.374768998864233 
1350	 0.373202272850656 
1351	 0.371397681319557 
1352	 0.369860911026228 
1353	 0.368474414827399 
1354	 0.36693671046933 
1355	 0.365259731216257 
1356	 0.363968198731474 
1357	 0.36287871082711 
1358	 0.361493654003208 
1359	 0.360450397034415 
1360	 0.359108326864853 
1361	 0.35736292585132 
1362	 0.355644709544745 
1363	 0.35409585090585 
1364	 0.351981686250742 
1365	 0.349941899411546 
1366	 0.348122800277151 
1367	 0.346006213029195 
1368	 0.344216655325536 
1369	 0.342534629001812 
1370	 0.340311692384546 
1371	 0.337925229503776 
1372	 0.335210670284263 
1373	 0.331967033671667 
1374	 0.328978781489864 
1375	 0.326217146159121 
1376	 0.323882256166161 
1377	 0.320949371812915 
1378	 0.318320257192682 
1379	 0.314600370643439 
1380	 0.310118732504977 
1381	 0.305457411642512 
1382	 0.299873127175589 
1383	 0.294806325521968 
1384	 0.289735138506407 
1385	 0.284526984447313 
1386	 0.280118429672286 
1387	 0.274707890724196 
1388	 0.268981233893479 
1389	 0.263446398850256 
1390	 0.257077546152584 
1391	 0.251036164297776 
1392	 0.245081466657004 
1393	 0.239348728093133 
1394	 0.234180274701967 
1395	 0.228835506653854 
1396	 0.223416779230195 
1397	 0.217929532901302 
1398	 0.212738328623594 
1399	 0.207461509259701 
1400	 0.202482335032348 
1401	 0.197972711509633 
1402	 0.193204789626458 
1403	 0.188247434944035 
1404	 0.183726518276251 
1405	 0.179369121166493 
1406	 0.175308538133723 
1407	 0.171588700357553 
1408	 0.167930047140918 
1409	 0.164353816215601 
1410	 0.16072584152818 
1411	 0.157777819883382 
1412	 0.155060212330036 
1413	 0.152715914900096 
1414	 0.150562401437648 
1415	 0.148315460217365 
1416	 0.146253513044547 
1417	 0.144052600648119 
1418	 0.142219069805021 
1419	 0.140603359183344 
1420	 0.139153451256073 
1421	 0.137696857872243 
1422	 0.136509514313227 
1423	 0.13527223756838 
1424	 0.134013409942981 
1425	 0.132937482206938 
1426	 0.132130994572323 
1427	 0.131192285435575 
1428	 0.130154993616792 
1429	 0.129081210956463 
1430	 0.127869672166204 
1431	 0.126851379277049 
1432	 0.125762767778013 
1433	 0.125127839037776 
1434	 0.124697595854616 
1435	 0.124330536038483 
1436	 0.124207547436522 
1437	 0.124272754757585 
1438	 0.124235951525648 
1439	 0.124246633621822 
1440	 0.123883648797442 
1441	 0.123347072192522 
1442	 0.123057413999342 
1443	 0.122727931474403 
1444	 0.122548838908342 
1445	 0.122746925337097 
1446	 0.122548770438814 
1447	 0.121990144538086 
1448	 0.121925715600831 
1449	 0.122011174162824 
1450	 0.122121950311483 
1451	 0.122655979987337 
1452	 0.122837913914927 
1453	 0.122736559121385 
1454	 0.122648503763944 
1455	 0.122420105553249 
1456	 0.12242728788546 
1457	 0.122396220903052 
1458	 0.122679581547688 
1459	 0.123119736931454 
1460	 0.123255060682811 
1461	 0.123301559509119 
1462	 0.12335689596485 
1463	 0.123357165079911 
1464	 0.123441510964647 
1465	 0.123618760203853 
1466	 0.123774774690684 
1467	 0.124093348329846 
1468	 0.124617672491862 
1469	 0.12516602640316 
1470	 0.125882988977815 
1471	 0.126577017308261 
1472	 0.127205632002686 
1473	 0.12802753657718 
1474	 0.129174786290347 
1475	 0.129939147639568 
1476	 0.130634676670823 
1477	 0.13120567506277 
1478	 0.131329052275042 
1479	 0.131807928598808 
1480	 0.132471590749291 
1481	 0.133275109292978 
1482	 0.134264257387423 
1483	 0.135205807721624 
1484	 0.136259364375003 
1485	 0.137070109922909 
1486	 0.137677116462318 
1487	 0.138593206176866 
1488	 0.139283904137946 
1489	 0.14019122986906 
1490	 0.141270270064537 
1491	 0.142209556568935 
1492	 0.143210798312626 
1493	 0.144361638147337 
1494	 0.145429857328632 
1495	 0.146397146514816 
1496	 0.147403288311803 
1497	 0.148262072837204 
1498	 0.14929586498049 
1499	 0.150663097255133 
1500	 0.151743008033791 
1501	 0.152570276184215 
1502	 0.15348678511821 
1503	 0.154134414447293 
1504	 0.155028976249245 
1505	 0.156063864256336 
1506	 0.157256340468173 
1507	 0.158558693892763 
1508	 0.159881183610751 
1509	 0.161517633585034 
1510	 0.162786934530765 
1511	 0.164079848756656 
1512	 0.164903034999092 
1513	 0.165071551839415 
1514	 0.16577680730581 
1515	 0.166320349305894 
1516	 0.167296527097281 
1517	 0.168911892952165 
1518	 0.170180635015889 
1519	 0.171481842141464 
1520	 0.172506495703101 
1521	 0.17395593302421 
1522	 0.175396665319279 
1523	 0.176649208571274 
1524	 0.177809217257197 
1525	 0.178419835256541 
1526	 0.178935468885752 
1527	 0.17984446249974 
1528	 0.1807729191958 
1529	 0.18153111193658 
1530	 0.182417115777709 
1531	 0.183445976483451 
1532	 0.184645463342279 
1533	 0.185937135849197 
1534	 0.187174176746741 
1535	 0.188246176722112 
1536	 0.188967557165577 
1537	 0.190005727066219 
1538	 0.191251530681321 
1539	 0.192236161298051 
1540	 0.193244986841691 
1541	 0.194114378193613 
1542	 0.194577280984606 
1543	 0.195307579588702 
1544	 0.196143071272388 
1545	 0.19711448753228 
1546	 0.198161835311135 
1547	 0.199429905893355 
1548	 0.201001600279892 
1549	 0.202208815246631 
1550	 0.20366835816428 
1551	 0.204645546157553 
1552	 0.205030791940765 
1553	 0.205734541185939 
1554	 0.206102198523473 
1555	 0.206781862299484 
1556	 0.207756795749148 
1557	 0.208814541407389 
1558	 0.209814231777437 
1559	 0.210893878248675 
1560	 0.211663282349391 
1561	 0.213030204707492 
1562	 0.214066603869192 
1563	 0.215034853485384 
1564	 0.216407279489001 
1565	 0.216950150833219 
1566	 0.21740752522375 
1567	 0.217841703971773 
1568	 0.21841381759633 
1569	 0.219029141346978 
1570	 0.219663375047645 
1571	 0.220487247293176 
1572	 0.220971860790618 
1573	 0.221513175630244 
1574	 0.222272804310894 
1575	 0.223087255881028 
1576	 0.223680347654898 
1577	 0.224139196716478 
1578	 0.224631822897169 
1579	 0.224799911098589 
1580	 0.225518746351944 
1581	 0.226557171959694 
1582	 0.227505955509478 
1583	 0.228840633348243 
1584	 0.229754645583502 
1585	 0.230386263249421 
1586	 0.231237392188904 
1587	 0.231952235349584 
1588	 0.232806019071371 
1589	 0.234025381746511 
1590	 0.234747336208433 
1591	 0.235208660830614 
1592	 0.235892100721149 
1593	 0.236440875478407 
1594	 0.236937216925869 
1595	 0.237525976662628 
1596	 0.238029003564077 
1597	 0.238209563741335 
1598	 0.238750276261027 
1599	 0.239552964638227 
1600	 0.240319957067164 
1601	 0.241359186063734 
1602	 0.242154214623902 
1603	 0.242768739591482 
1604	 0.243432989271192 
1605	 0.244067266161503 
1606	 0.244539208121206 
1607	 0.244892293836422 
1608	 0.245372841994705 
1609	 0.245698438748966 
1610	 0.246216074896766 
1611	 0.246951847482139 
1612	 0.247645715369043 
1613	 0.247892283928377 
1614	 0.248359359464308 
1615	 0.248952598835263 
1616	 0.249399722284375 
1617	 0.250398866714624 
1618	 0.250989378123134 
1619	 0.250973386773513 
1620	 0.251225565141692 
1621	 0.251115892319986 
1622	 0.251033806257645 
1623	 0.251238778201873 
1624	 0.251169988155144 
1625	 0.251869319631776 
1626	 0.25268432157222 
1627	 0.253397473437625 
1628	 0.254636598145274 
1629	 0.255223180055347 
1630	 0.255209039212322 
1631	 0.255724507309475 
1632	 0.256348340105164 
1633	 0.25678035863852 
1634	 0.25741239780987 
1635	 0.257655098763591 
1636	 0.257465128302169 
1637	 0.257603828361 
1638	 0.25774944031592 
1639	 0.257926639618324 
1640	 0.258232016573136 
1641	 0.258437501259775 
1642	 0.258426264710971 
1643	 0.258863028936209 
1644	 0.259695433029264 
1645	 0.26006186343706 
1646	 0.26059905563614 
1647	 0.260725676729248 
1648	 0.260201935967294 
1649	 0.260073962043293 
1650	 0.259881218647076 
1651	 0.259971202032353 
1652	 0.260297307916641 
1653	 0.260651472606239 
1654	 0.261389889393874 
1655	 0.261715330379008 
1656	 0.262074666194602 
1657	 0.261916395532951 
1658	 0.261246741317267 
1659	 0.260605358422804 
1660	 0.259225844157673 
1661	 0.258798163427223 
1662	 0.259133055159497 
1663	 0.258865618332365 
1664	 0.258893121824748 
1665	 0.258580201435146 
1666	 0.257296221642928 
1667	 0.256871338758743 
1668	 0.257012982450815 
1669	 0.256934366657391 
1670	 0.257151064723796 
1671	 0.257145842463204 
1672	 0.257064764444624 
1673	 0.2568074574436 
1674	 0.256299427079223 
1675	 0.256019905828055 
1676	 0.255863593122433 
1677	 0.255402081088538 
1678	 0.254697983401066 
1679	 0.254352203908363 
1680	 0.254075586880343 
1681	 0.253521184840509 
1682	 0.253386447664743 
1683	 0.252789040834318 
1684	 0.251218668215168 
1685	 0.250382164047464 
1686	 0.249955715369251 
1687	 0.249304930657673 
1688	 0.248957155851995 
1689	 0.248330886502864 
1690	 0.247078746527041 
1691	 0.246425077861939 
1692	 0.246295726952382 
1693	 0.245771698723286 
1694	 0.245650354248979 
1695	 0.244919295574769 
1696	 0.243196877675708 
1697	 0.242070630313126 
1698	 0.240828229252143 
1699	 0.239933219122303 
1700	 0.239517914376903 
1701	 0.239134358696559 
1702	 0.239204895110936 
1703	 0.238821529664812 
1704	 0.238290721956584 
1705	 0.237763098079471 
1706	 0.236761977067886 
1707	 0.236086752922493 
1708	 0.235562746367883 
1709	 0.235224362076755 
1710	 0.235115959350929 
1711	 0.235015305003331 
1712	 0.235373433707901 
1713	 0.235278522951863 
1714	 0.234834666863627 
1715	 0.234512806371367 
1716	 0.233645183358092 
1717	 0.233387902675792 
1718	 0.23389819619059 
1719	 0.233948206008477 
1720	 0.234418262076153 
1721	 0.234249572024048 
1722	 0.233335277999549 
1723	 0.232431123649082 
1724	 0.230414135756434 
1725	 0.229785823800655 
1726	 0.230134834193959 
1727	 0.230210827144106 
1728	 0.231468273902356 
1729	 0.2318602128267 
1730	 0.231641247903719 
1731	 0.231127084562953 
1732	 0.229968971796526 
1733	 0.229140328680329 
1734	 0.22820841683398 
1735	 0.227157624691646 
1736	 0.225864679579072 
1737	 0.22515632198155 
1738	 0.224495376933373 
1739	 0.224090162866619 
1740	 0.224756634400093 
1741	 0.224693540469057 
1742	 0.22428645212231 
1743	 0.223837767315934 
1744	 0.222867680043084 
1745	 0.222275078604888 
1746	 0.221870425579163 
1747	 0.221338690484193 
1748	 0.220987007481919 
1749	 0.220481292310883 
1750	 0.219786132461907 
1751	 0.219199183224347 
1752	 0.218796481583927 
1753	 0.218067675389902 
1754	 0.216813363075972 
1755	 0.216089984327068 
1756	 0.215344518818302 
1757	 0.214909865042758 
1758	 0.215469062588535 
1759	 0.215320576964574 
1760	 0.214612119480194 
1761	 0.214238431004682 
1762	 0.213495965762399 
1763	 0.21337007986879 
1764	 0.214191322881136 
1765	 0.214246633599446 
1766	 0.214448547352398 
1767	 0.214042894712507 
1768	 0.212367870134067 
1769	 0.211706364216145 
1770	 0.211243125456623 
1771	 0.210844046929205 
1772	 0.2111192416715 
1773	 0.21123893950071 
1774	 0.211228594627149 
1775	 0.211299546654434 
1776	 0.211570659128625 
1777	 0.211708102166674 
1778	 0.21199379359986 
1779	 0.211752192418447 
1780	 0.210997600197694 
1781	 0.21047022486555 
1782	 0.20967357659333 
1783	 0.209053611598941 
1784	 0.208636139200321 
1785	 0.20838796464347 
1786	 0.208166846603195 
1787	 0.207998247555405 
1788	 0.208096435543802 
1789	 0.208213223128003 
1790	 0.20782414003117 
1791	 0.208413381679691 
1792	 0.210048617146006 
1793	 0.210690315703253 
1794	 0.212038193633943 
1795	 0.211929651525944 
1796	 0.209734245226937 
1797	 0.209706189249994 
1798	 0.210233156749694 
1799	 0.210313189451269 
1800	 0.211344782261323 
1801	 0.224589640318442 
1802	 0.221141780600691 
1803	 0.219931056124589 
1804	 0.219440949650667 
1805	 0.219586926240609 
1806	 0.221512297614834 
1807	 0.221521969623044 
1808	 0.219803158848695 
1809	 0.221237260393003 
1810	 0.222754692299099 
1811	 0.222393892284973 
1812	 0.222733945416587 
1813	 0.222367962881666 
1814	 0.222482195752008 
1815	 0.221432490300702 
1816	 0.220930088446698 
1817	 0.221590797437935 
1818	 0.221871765447044 
1819	 0.221468800730188 
1820	 0.221023206929897 
1821	 0.221784685581752 
1822	 0.222630390355662 
1823	 0.221910923247755 
1824	 0.219325895429273 
1825	 0.219070641985973 
1826	 0.21840203998999 
1827	 0.218433886065774 
1828	 0.219989478841882 
1829	 0.222002944685461 
1830	 0.222001573895448 
1831	 0.223918734372662 
1832	 0.226543208897048 
1833	 0.227030826123169 
1834	 0.22661050774118 
1835	 0.225229060775223 
1836	 0.223547474278428 
1837	 0.219576308937594 
1838	 0.217756200086438 
1839	 0.218071996163083 
1840	 0.217656011019316 
1841	 0.218361254904863 
1842	 0.219456008514937 
1843	 0.217559156419627 
1844	 0.216785245553348 
1845	 0.215780027839779 
1846	 0.212927056790868 
1847	 0.211660316607044 
1848	 0.211537351031627 
1849	 0.211943321192729 
1850	 0.211387158125942 
1851	 0.210896500393249 
1852	 0.208448459295493 
1853	 0.204484014795209 
1854	 0.20115210960993 
1855	 0.199317557519033 
1856	 0.197756982025513 
1857	 0.197507681492952 
1858	 0.196718805704264 
1859	 0.194874647463846 
1860	 0.193778073957225 
1861	 0.192892919288544 
1862	 0.191419864204715 
1863	 0.189256869084157 
1864	 0.186518016269376 
1865	 0.183487776006273 
1866	 0.180776833140277 
1867	 0.178229199302453 
1868	 0.176762154815213 
1869	 0.174157858639298 
1870	 0.170180465326686 
1871	 0.165649101653601 
1872	 0.162106113619377 
1873	 0.159797782749627 
1874	 0.157533925176503 
1875	 0.156071218061692 
1876	 0.153516726700009 
1877	 0.149006839821624 
1878	 0.144638104556669 
1879	 0.139772075597039 
1880	 0.134893566564586 
1881	 0.130219650477668 
1882	 0.126433384631507 
1883	 0.122334766231775 
1884	 0.117263782033282 
1885	 0.113756687973316 
1886	 0.109419140653187 
1887	 0.104164292148272 
1888	 0.101932115146269 
1889	 9.91515225564088E-02 
1890	 9.57226933589004E-02 
1891	 9.23201077561355E-02 
1892	 9.20444924133491E-02 
1893	 9.00308756235309E-02 
1894	 8.75202563331263E-02 
1895	 8.72689438692793E-02 
1896	 8.58280895757284E-02 
1897	 8.27511212019783E-02 
1898	 7.95783598105661E-02 
1899	 7.76531938468936E-02 
1900	 7.51698504725012E-02 
1901	 7.33052764083909E-02 
1902	 7.24021769467928E-02 
1903	 7.36419728982277E-02 
1904	 7.27921364633106E-02 
1905	 7.24956634624055E-02 
1906	 7.32381391968985E-02 
1907	 7.25188820992147E-02 
1908	 7.13879148867692E-02 
1909	 6.99726013880294E-02 
1910	 6.82440851849978E-02 
1911	 0.064607380664665 
1912	 6.36255991467467E-02 
1913	 6.29922948187111E-02 
1914	 6.48033866708956E-02 
1915	 6.68106260957922E-02 
1916	 6.89639057001564E-02 
1917	 0.070371475821971 
1918	 0.069338778946515 
1919	 6.87690242943911E-02 
1920	 6.82679715314486E-02 
1921	 6.86010239569108E-02 
1922	 0.07017208878058 
1923	 7.04059490153136E-02 
1924	 7.04372905691371E-02 
1925	 0.07093269932479 
1926	 6.94835072506299E-02 
1927	 6.79017478178718E-02 
1928	 6.80815964005451E-02 
1929	 6.78675414450543E-02 
1930	 6.87174880119605E-02 
1931	 6.99928064025568E-02 
1932	 7.04909965017944E-02 
1933	 7.02668472119325E-02 
1934	 6.97153611340046E-02 
1935	 6.83224455503765E-02 
1936	 0.067421307962756 
1937	 6.58586544387407E-02 
1938	 6.53660201572228E-02 
1939	 6.55837162562204E-02 
1940	 6.52089776484507E-02 
1941	 6.51939527568532E-02 
1942	 6.61162072257261E-02 
1943	 6.72717876828941E-02 
1944	 6.81016884963069E-02 
1945	 6.84488406496606E-02 
1946	 6.88100276646228E-02 
1947	 6.85238275935425E-02 
1948	 6.72620888367226E-02 
1949	 6.63470377465834E-02 
1950	 6.58157155976181E-02 
1951	 6.44525319514452E-02 
1952	 6.36431903989843E-02 
1953	 6.36828120362589E-02 
1954	 6.42721500354005E-02 
1955	 6.61760434882716E-02 
1956	 6.76031613198929E-02 
1957	 7.03233504178598E-02 
1958	 7.06867032121338E-02 
1959	 0.069448039242353 
1960	 6.90505538301383E-02 
1961	 6.74646747998815E-02 
1962	 6.72490077125652E-02 
1963	 6.72823525291444E-02 
1964	 6.67093650397446E-02 
1965	 6.68501007881054E-02 
1966	 6.79801706041379E-02 
1967	 7.10287964066968E-02 
1968	 7.28691988388423E-02 
1969	 7.38021193669017E-02 
1970	 7.40971507400497E-02 
1971	 7.41536156920113E-02 
1972	 7.25512491930992E-02 
1973	 7.27111587872574E-02 
1974	 7.43525351783028E-02 
1975	 7.40159062903568E-02 
1976	 7.47632616535946E-02 
1977	 7.30920058560324E-02 
1978	 7.17223749124559E-02 
1979	 7.09766371518783E-02 
1980	 0.070865964618507 
1981	 7.20896598325662E-02 
1982	 7.27108394260994E-02 
1983	 7.27423110237524E-02 
1984	 7.42086884214678E-02 
1985	 0.077196744033991 
1986	 7.86134178758419E-02 
1987	 8.06636727824042E-02 
1988	 8.16215497278767E-02 
1989	 8.14675715227314E-02 
1990	 0.080217942239382 
1991	 7.97173058869164E-02 
1992	 7.90417964815641E-02 
1993	 7.82158958551466E-02 
1994	 7.63196057861827E-02 
1995	 0.07576475909953 
1996	 7.59387353075919E-02 
1997	 0.076473225035794 
1998	 7.80104217859548E-02 
1999	 7.90467476970545E-02 
2000	 8.04022860391211E-02 
2001	 8.05812516828651E-02 
2002	 8.17035696157383E-02 
2003	 8.41376294741606E-02 
2004	 8.61134833204576E-02 
2005	 8.88111113726476E-02 
2006	 8.92602871985772E-02 
2007	 8.77404032556397E-02 
2008	 8.73870833306819E-02 
2009	 8.51395357899123E-02 
2010	 8.48065295939345E-02 
2011	 0.087345588105883 
2012	 8.72832235604604E-02 
2013	 8.59741922632649E-02 
2014	 8.59768333081449E-02 
2015	 8.40860905252762E-02 
2016	 8.22323598873334E-02 
2017	 8.20198995975892E-02 
2018	 8.12448617496381E-02 
2019	 8.15935435821079E-02 
2020	 8.27884295657264E-02 
2021	 8.36178238773616E-02 
2022	 8.54126789636852E-02 
2023	 8.63845536698929E-02 
2024	 8.65352717582493E-02 
2025	 8.73410622161648E-02 
2026	 8.87340194355378E-02 
2027	 8.95369492889534E-02 
2028	 9.06335108581793E-02 
2029	 0.090524665552706 
2030	 0.090870998781114 
2031	 9.06731761681895E-02 
2032	 9.14977298055985E-02 
2033	 9.36885005602757E-02 
2034	 9.43548258133438E-02 
2035	 9.47363522694227E-02 
2036	 9.48784998317885E-02 
2037	 9.43689241484272E-02 
2038	 9.39539653048173E-02 
2039	 9.32769713181747E-02 
2040	 9.28960817864078E-02 
2041	 9.26290285601023E-02 
2042	 9.11135533124806E-02 
2043	 9.16466842971689E-02 
2044	 9.37594427971413E-02 
2045	 9.54475880470615E-02 
2046	 9.89941732535326E-02 
2047	 9.98429939420827E-02 
2048	 9.96805281929777E-02 
2049	 9.88735655382808E-02 
2050	 9.55155870052334E-02 
2051	 9.44340692318468E-02 
2052	 9.40338360974866E-02 
2053	 9.37739429724864E-02 
2054	 9.47033611215375E-02 
2055	 9.55757757852764E-02 
2056	 9.79377563057057E-02 
2057	 9.68341656988239E-02 
2058	 9.71411645410316E-02 
2059	 9.56430464000612E-02 
2060	 9.61892386222313E-02 
2061	 9.71382861977797E-02 
2062	 9.76357956609759E-02 
2063	 9.87264132179122E-02 
2064	 0.100486362654275 
2065	 0.100928708608689 
2066	 0.103348549224173 
2067	 0.110051877546047 
2068	 0.112800448269317 
2069	 0.114501507496082 
2070	 0.115304610533675 
2071	 0.11391650207785 
2072	 0.1122300502927 
2073	 0.108855525276209 
2074	 0.106603213637853 
2075	 0.106544117158435 
2076	 0.107017836885817 
2077	 0.108630520046038 
2078	 0.114944974106513 
2079	 0.115654766374374 
2080	 0.114437484589251 
2081	 0.113044981483873 
2082	 0.107478653698009 
2083	 0.105425176052694 
2084	 0.104364030613072 
2085	 0.103700748260904 
2086	 0.103736758397616 
2087	 0.105990898298543 
2088	 0.107571103783424 
2089	 0.109342613436872 
2090	 0.110214233602359 
2091	 0.11107458723786 
2092	 0.111180467968991 
2093	 0.109036345288055 
2094	 0.109965182885299 
2095	 0.112370893997225 
2096	 0.113859627749753 
2097	 0.116961350418525 
2098	 0.119019813084867 
2099	 0.120637207731721 
2100	 0.121104865191269 
2101	 0.121720017239259 
2102	 0.121107024531331 
2103	 0.119371136474626 
2104	 0.114770170905982 
2105	 0.112510155884574 
2106	 0.109232809326197 
2107	 0.109615134532853 
2108	 0.111812868422065 
2109	 0.115192059827416 
2110	 0.124347709365849 
2111	 0.126020014932296 
2112	 0.12463780072657 
2113	 0.124101924733873 
2114	 0.118580762367479 
2115	 0.116527590860237 
2116	 0.117910518932765 
2117	 0.117634288712978 
2118	 0.117509232530156 
2119	 0.115520673771508 
2120	 0.116205549431708 
2121	 0.117818243341803 
2122	 0.117902970347101 
2123	 0.118379566353383 
2124	 0.119227431916746 
2125	 0.11832745163186 
2126	 0.119520001576086 
2127	 0.123963668963543 
2128	 0.1257651424515 
2129	 0.127072071413449 
2130	 0.127186959449223 
2131	 0.124124904703449 
2132	 0.123600870774664 
2133	 0.125077753147312 
2134	 0.124720069484881 
2135	 0.124619403085976 
2136	 0.12475168170404 
2137	 0.122988119474271 
2138	 0.121080133565117 
2139	 0.121871506644382 
2140	 0.124837317859361 
2141	 0.126931960121747 
2142	 0.130914295881186 
2143	 0.132019249571371 
2144	 0.132054335955943 
2145	 0.131864942987973 
2146	 0.128722865795377 
2147	 0.12901702941933 
2148	 0.13219386694026 
2149	 0.132350084103147 
2150	 0.133494805498536 
2151	 0.132957203770448 
2152	 0.126595964719703 
2153	 0.12547846602429 
2154	 0.128909558555132 
2155	 0.129449833274783 
2156	 0.12981397856404 
2157	 0.128722596032921 
2158	 0.125489742032309 
2159	 0.116369953608752 
2160	 0.113831536262672 
2161	 0.113854306904757 
2162	 0.112922016944351 
2163	 0.112710388317593 
2164	 0.113881413679241 
2165	 0.114439028311286 
2166	 0.1168952975822 
2167	 0.123763695265078 
2168	 0.127247837946823 
2169	 0.129887651162953 
2170	 0.132229068724078 
2171	 0.133532754450911 
2172	 0.134191302523461 
2173	 0.13368383535438 
2174	 0.134673634803236 
2175	 0.131629035291458 
2176	 0.130834114272357 
2177	 0.131328282561391 
2178	 0.131663163400152 
2179	 0.133743032032316 
2180	 0.140010120046809 
2181	 0.141229228414993 
2182	 0.141700692617536 
2183	 0.140700301952787 
2184	 0.136619460032409 
2185	 0.133533038542549 
2186	 0.128296987391039 
2187	 0.126803676285521 
2188	 0.126236761443399 
2189	 0.126913723950265 
2190	 0.131327933395267 
2191	 0.133922777956487 
2192	 0.138066335808436 
2193	 0.138820781350207 
2194	 0.135729586646605 
2195	 0.135782537989937 
2196	 0.134232112834296 
2197	 0.131949859784309 
2198	 0.130349858839514 
2199	 0.129217751800272 
2200	 0.129594792819931 
2201	 0.130823072553232 
2202	 0.130920750632188 
2203	 0.133437295924251 
2204	 0.133152113194439 
2205	 0.128692618154279 
2206	 0.127477492764354 
2207	 0.127759493150253 
2208	 0.126935007239005 
2209	 0.126894705374384 
2210	 0.126492560341655 
2211	 0.124088627818093 
2212	 0.1238543416573 
2213	 0.124782003617651 
2214	 0.12588645604203 
2215	 0.129308214159652 
2216	 0.130719037518255 
2217	 0.131374364186942 
2218	 0.132240597681011 
2219	 0.12981825878193 
2220	 0.128665546092023 
2221	 0.127319950184962 
2222	 0.125350598953079 
2223	 0.124354405369965 
2224	 0.123379319614001 
2225	 0.124118486156643 
2226	 0.125968929286201 
2227	 0.127413250533527 
2228	 0.130893716311925 
2229	 0.132308440607166 
2230	 0.13293647819997 
2231	 0.132651733865332 
2232	 0.131446440855028 
2233	 0.12993453286914 
2234	 0.127460795351462 
2235	 0.124458210829278 
2236	 0.118187974195991 
2237	 0.116376588344691 
2238	 0.11651794491443 
2239	 0.117349062020276 
2240	 0.123204327036456 
2241	 0.12678949588657 
2242	 0.125896488639652 
2243	 0.122047405245799 
2244	 0.116462967950884 
2245	 0.112110625833926 
2246	 0.110985067638979 
2247	 0.111321167637204 
2248	 0.11164473685144 
2249	 0.113415523366736 
2250	 0.1150297605688 
2251	 0.116850991533551 
2252	 0.118668450928763 
2253	 0.122736833831936 
2254	 0.123052748740558 
2255	 0.121647665103616 
2256	 0.11981881974196 
2257	 0.113643043853173 
2258	 0.111725390791365 
2259	 0.111805170758383 
2260	 0.1113832311608 
2261	 0.113929028293321 
2262	 0.114271790951398 
2263	 0.111901221492655 
2264	 0.111187479859636 
2265	 0.111091861178984 
2266	 0.110357020773985 
2267	 0.109403992396561 
2268	 0.110156405305723 
2269	 0.110523837025512 
2270	 0.109678118414179 
2271	 0.105523691121482 
2272	 0.103303680606263 
2273	 9.92910006406711E-02 
2274	 9.55279722794347E-02 
2275	 9.59519871816182E-02 
2276	 9.76354111346652E-02 
2277	 9.86155666604006E-02 
2278	 0.100468892281259 
2279	 0.100324180105438 
2280	 9.87596017566864E-02 
2281	 9.95932862630577E-02 
2282	 0.10079262521712 
2283	 0.102724542601103 
2284	 0.107116204019932 
2285	 0.108755250913946 
2286	 0.109639397792177 
2287	 0.109270851001931 
2288	 0.107443999434661 
2289	 0.105060579382377 
2290	 0.101650003540689 
2291	 9.83584628786728E-02 
2292	 9.29009633577858E-02 
2293	 8.99623656044121E-02 
2294	 8.43598047955088E-02 
2295	 8.46744460153823E-02 
2296	 9.42820248783817E-02 
2297	 9.80300971298633E-02 
2298	 0.10316017746536 
2299	 0.10681860417596 
2300	 0.107322402983256 
2301	 0.103979819769169 
2302	 0.103538836074164 
2303	 0.104407386687984 
2304	 0.100239481652404 
2305	 9.57564346701773E-02 
2306	 9.62953255810097E-02 
2307	 9.81687480505978E-02 
2308	 9.98504563006136E-02 
2309	 9.47338864455538E-02 
2310	 9.05536788861384E-02 
2311	 8.61699793164556E-02 
2312	 7.92184291721232E-02 
2313	 8.48810171045266E-02 
2314	 8.95659473843708E-02 
2315	 9.17236710795751E-02 
2316	 9.57276175168304E-02 
2317	 0.103816454056004 
2318	 0.105362127648028 
2319	 0.102877726237144 
2320	 0.103743996100033 
2321	 0.104174709363206 
2322	 0.103537423988162 
2323	 0.105108604735324 
2324	 0.104083367058825 
2325	 9.64856692759382E-02 
2326	 9.72716719395589E-02 
2327	 0.105264220000978 
2328	 0.103506619397943 
2329	 0.101101140303613 
2330	 9.82767438178679E-02 
2331	 8.71836508396955E-02 
2332	 8.13234721940073E-02 
2333	 7.68813457142146E-02 
2334	 7.67485734683492E-02 
2335	 8.00806691440515E-02 
2336	 0.084263273211649 
2337	 9.94147844045136E-02 
2338	 0.103017349479392 
2339	 9.85719091645808E-02 
2340	 9.53727673547815E-02 
2341	 8.88056978088857E-02 
2342	 7.61210495388281E-02 
2343	 7.42005980221914E-02 
2344	 0.075499238885767 
2345	 6.81723705574025E-02 
2346	 7.03245301794808E-02 
2347	 8.01854678120282E-02 
2348	 7.70616239134508E-02 
2349	 8.06287817773576E-02 
2350	 9.03972366430101E-02 
2351	 0.078962751875247 
2352	 7.93963382370668E-02 
2353	 8.04291939494217E-02 
2354	 7.09586087560631E-02 
2355	 7.88736965947295E-02 
2356	 8.13612292983948E-02 
2357	 8.39434148929894E-02 
2358	 9.33919354458064E-02 
2359	 9.46911129194384E-02 
2360	 9.26807340894959E-02 
2361	 8.79259287124996E-02 
2362	 8.17758860362686E-02 
2363	 7.79188725028681E-02 
2364	 0.077582334373465 
2365	 7.59135369334351E-02 
2366	 8.08865616466137E-02 
2367	 8.52279244040976E-02 
2368	 7.70894966550881E-02 
2369	 8.12372333950879E-02 
2370	 8.10686138759711E-02 
2371	 8.01461080852289E-02 
2372	 9.26794387553765E-02 
2373	 8.97570518794044E-02 
2374	 9.36053259069599E-02 
2375	 0.101477346493919 
2376	 9.42671929534989E-02 
2377	 9.10649394684366E-02 
2378	 8.01521330105537E-02 
2379	 6.66017454392415E-02 
2380	 6.13365376886272E-02 
2381	 6.09820043616723E-02 
2382	 6.91009155782015E-02 
2383	 0.071868778371994 
2384	 7.16962701025664E-02 
2385	 7.26490479455987E-02 
2386	 6.74210764373484E-02 
2387	 6.82857821811781E-02 
2388	 7.81594611244506E-02 
2389	 8.26982745224841E-02 
2390	 8.65659540871036E-02 
2391	 8.87786273861132E-02 
2392	 0.082368131029906 
2393	 8.11603701989456E-02 
2394	 8.69595842864696E-02 
2395	 8.94625844583229E-02 
2396	 9.28605175741779E-02 
2397	 9.44325191443089E-02 
2398	 9.30188064486453E-02 
2399	 9.43380691653614E-02 
2400	 0.100574456097342 
2401	 9.96800490144476E-02 
2402	 8.95745169216146E-02 
2403	 8.41778487306294E-02 
2404	 7.35771290108299E-02 
2405	 7.19753169415895E-02 
2406	 8.67092316223617E-02 
2407	 9.11654984788877E-02 
2408	 8.92067158732239E-02 
2409	 9.31710152651999E-02 
2410	 9.83092563776127E-02 
2411	 9.63499999825091E-02 
2412	 0.089434843253822 
2413	 8.86930131841777E-02 
2414	 9.12239300102323E-02 
2415	 8.78560504260442E-02 
2416	 8.55538343913567E-02 
2417	 0.089589559891684 
2418	 8.69378696470049E-02 
2419	 9.07769046261322E-02 
2420	 0.115083109508862 
2421	 0.125356280852665 
2422	 0.126012697076492 
2423	 0.12127022856746 
2424	 0.101649880368705 
2425	 8.64688921223767E-02 
2426	 0.071393988930121 
2427	 0.070382946583068 
2428	 8.07892382196782E-02 
2429	 8.30107781717856E-02 
2430	 8.98225299976185E-02 
2431	 7.81623848782656E-02 
2432	 4.42478909459715E-02 
2433	 3.53985578472047E-02 
2434	 3.43892250894855E-02 
2435	 3.81287495934732E-02 
2436	 5.90628334896382E-02 
2437	 7.20589793844414E-02 
2438	 8.50179604183545E-02 
2439	 0.101288771541314 
2440	 0.1259729338869 
2441	 0.12176577583234 
2442	 0.10255470949284 
2443	 5.09841178771172E-02 
2444	 2.11772767664072E-02 
2445	 7.41172844678327E-03 
2446	-1.4196290182831E-04 
2447	 1.56720658161904E-02 
2448	 2.90683125101579E-02 
2449	 4.99867897046862E-02 
2450	 7.64074119779424E-02 
2451	 8.21253312208583E-02 
2452	 8.94996385304607E-02 
2453	 0.102619473535105 
2454	 0.107193913032515 
2455	 0.115071861349856 
2456	 0.115823346458855 
2457	 8.89857027871974E-02 
2458	 7.92819312658062E-02 
2459	 8.19953092797833E-02 
2460	 8.45917458293064E-02 
2461	 0.109779138903908 
2462	 0.104906213604488 
2463	 8.26110015360054E-02 
2464	 7.61449885047288E-02 
2465	 5.04142660527509E-02 
2466	 4.66924494065773E-02 
2467	 6.14917066699489E-02 
2468	 3.86636372777968E-02 
2469	 2.39798399382874E-02 
2470	 1.63118109099207E-02 
2471	-5.31644670915637E-03 
2472	 8.45205161422307E-03 
2473	 4.19907341200955E-02 
2474	 5.64863391405452E-02 
2475	 6.31460685089831E-02 
2476	 3.67071181890993E-02 
2477	 1.05951566345251E-02 
2478	 7.63841696590392E-03 
2479	-5.42367793434485E-03 
2480	 3.75963572497797E-02 
2481	 9.61654165534983E-02 
2482	 0.10552928247786 
2483	 0.125546488384106 
2484	 0.12823302623741 
2485	 8.04131656813935E-02 
2486	 6.39735849275891E-02 
2487	 3.11394288887347E-02 
2488	-2.73636062400124E-02 
2489	-1.49100974467691E-02 
2490	-1.86376614570771E-02 
2491	-1.27412139321243E-02 
2492	 3.01504762764627E-02 
2493	 1.35941398420793E-02 
2494	-3.28444866589737E-02 
2495	-1.90029577607943E-02 
2496	 9.77910206529216E-03 
2497	 2.49729319466081E-02 
2498	 5.12746325604931E-02 
2499	 4.99808495552725E-02 
2500	 3.85507425128164E-02 
