Wavelength	TRI_ARB_099_221_210422_L00001.asd
350	-0.107189255592378 
351	-0.438963256595643 
352	-0.503652258959353 
353	-0.133472695629988 
354	 7.16523923996536E-02 
355	 0.252527155144315 
356	 0.462046427308627 
357	 0.137244035378889 
358	 0.109876040924688 
359	 0.168382668102179 
360	 7.65309181234667E-02 
361	 0.19673187357693 
362	 0.174544236112876 
363	 9.40128823941658E-02 
364	 0.160234102123439 
365	 0.197879912024214 
366	 0.161998554152504 
367	 0.106432533761234 
368	 0.164707059560398 
369	 0.169189932260238 
370	 0.150005123905933 
371	 0.155428083044456 
372	 0.168001967269774 
373	 0.152107096577895 
374	 0.139557772914145 
375	 0.177250288653228 
376	 0.173188052935489 
377	 0.156027191363942 
378	 0.147291054005963 
379	 0.149795204336118 
380	 0.154992395896044 
381	 0.159401678951586 
382	 0.160135202544891 
383	 0.151255703085813 
384	 0.144362152537553 
385	 0.147397914689013 
386	 0.161824482010082 
387	 0.155070567308472 
388	 0.142687938656807 
389	 0.14171221320089 
390	 0.163617700344383 
391	 0.168807195195623 
392	 0.16135436357325 
393	 0.154789682149975 
394	 0.16557562641418 
395	 0.159689846396057 
396	 0.147066218067476 
397	 0.150192878961099 
398	 0.146479702384612 
399	 0.142988906587109 
400	 0.147957750582762 
401	 0.166931865978905 
402	 0.158311149674637 
403	 0.150566565620885 
404	 0.159502233955417 
405	 0.134387810957517 
406	 0.12592269073302 
407	 0.136151288142952 
408	 0.147073190721483 
409	 0.152872759465566 
410	 0.154326754251646 
411	 0.153240687398477 
412	 0.151569473575761 
413	 0.149589636853 
414	 0.152800233291585 
415	 0.160512247756599 
416	 0.153451370044987 
417	 0.147481289671337 
418	 0.149165073914945 
419	 0.157836977014232 
420	 0.158026601213008 
421	 0.154007519936159 
422	 0.151476238405798 
423	 0.155295338893643 
424	 0.158851502037897 
425	 0.160265521066561 
426	 0.160151020539558 
427	 0.162515048576899 
428	 0.167197602338897 
429	 0.169080611699114 
430	 0.162793563412994 
431	 0.161825091124084 
432	 0.163708998119352 
433	 0.164922756768136 
434	 0.163033394831884 
435	 0.160348005693186 
436	 0.160735219024781 
437	 0.165745604365769 
438	 0.168020361098861 
439	 0.167712023191363 
440	 0.166876492222945 
441	 0.168349541649345 
442	 0.169695919990176 
443	 0.168803898918255 
444	 0.166737382315251 
445	 0.170892426469001 
446	 0.168827999196407 
447	 0.16454494258579 
448	 0.16584012306779 
449	 0.170345898099873 
450	 0.170957516917772 
451	 0.167917379745511 
452	 0.168164746276141 
453	 0.169224897017564 
454	 0.168756477346035 
455	 0.166239404897569 
456	 0.165425825258068 
457	 0.166741442674631 
458	 0.166965659294216 
459	 0.163156337220355 
460	 0.167315355426791 
461	 0.169520330571458 
462	 0.166836277606919 
463	 0.167169311604414 
464	 0.166601767272765 
465	 0.165647635643107 
466	 0.165274416848131 
467	 0.164289971885439 
468	 0.165759011671514 
469	 0.167683240189839 
470	 0.165557544421551 
471	 0.164320672138378 
472	 0.163981904925598 
473	 0.164028319761553 
474	 0.16427545573325 
475	 0.163595477081021 
476	 0.162468041337444 
477	 0.162070356642709 
478	 0.163995536475762 
479	 0.164746894930621 
480	 0.163695814644817 
481	 0.162931874758198 
482	 0.160678984938444 
483	 0.159691236385441 
484	 0.161112307107216 
485	 0.159998262524397 
486	 0.160627784940589 
487	 0.161981435543454 
488	 0.161102108244367 
489	 0.159749483574849 
490	 0.159043766514586 
491	 0.158529126560578 
492	 0.155709351090425 
493	 0.15579429667369 
494	 0.157294170726599 
495	 0.157743532025938 
496	 0.158118886273073 
497	 0.158734202844969 
498	 0.158822403165805 
499	 0.157182873976406 
500	 0.157052023141854 
501	 0.157065717903411 
502	 0.156389055299875 
503	 0.156674665931763 
504	 0.15657189746781 
505	 0.156060673738519 
506	 0.155748379937193 
507	 0.156771781133615 
508	 0.158509285641489 
509	 0.159549955736754 
510	 0.157917326811566 
511	 0.157973321523269 
512	 0.159503084242831 
513	 0.161066897132941 
514	 0.160893722713409 
515	 0.16079477349243 
516	 0.161441201941955 
517	 0.162675292038518 
518	 0.163364208938644 
519	 0.164325772424676 
520	 0.165704003608246 
521	 0.16604056263256 
522	 0.167348440071158 
523	 0.169004645726054 
524	 0.170025989492544 
525	 0.172133220946707 
526	 0.173632725042906 
527	 0.174266240414044 
528	 0.175244865178004 
529	 0.177004507051229 
530	 0.178217106099213 
531	 0.178140221013586 
532	 0.178382573316783 
533	 0.178885374775987 
534	 0.179736523075542 
535	 0.180903166416668 
536	 0.181174610936378 
537	 0.181210206426089 
538	 0.181491664496791 
539	 0.18190764596395 
540	 0.183184799033045 
541	 0.18406219519013 
542	 0.183494375570828 
543	 0.183840033146985 
544	 0.184250363836663 
545	 0.184122810068444 
546	 0.183287369956682 
547	 0.184094678901877 
548	 0.184969008689037 
549	 0.184624964150206 
550	 0.184304133972346 
551	 0.183519686153548 
552	 0.182921199375171 
553	 0.183354106675673 
554	 0.183092003575163 
555	 0.182337010213894 
556	 0.181538605305746 
557	 0.181227096719268 
558	 0.180127318967023 
559	 0.179048534926698 
560	 0.178834376334088 
561	 0.178011097079375 
562	 0.176390577747521 
563	 0.174577027686277 
564	 0.17371543296046 
565	 0.173010639379704 
566	 0.172442769727154 
567	 0.171796124422892 
568	 0.170006461525273 
569	 0.168100859959161 
570	 0.166792057079938 
571	 0.166404525637051 
572	 0.165618187123785 
573	 0.164572171345044 
574	 0.163426606231721 
575	 0.162165012714977 
576	 0.161067916065511 
577	 0.160218913726712 
578	 0.159531644492567 
579	 0.158543884360901 
580	 0.15751972403029 
581	 0.156792516606267 
582	 0.15660810765673 
583	 0.155319738334359 
584	 0.154327241971253 
585	 0.154401239024501 
586	 0.153881888766746 
587	 0.153330832353168 
588	 0.152744960429832 
589	 0.152065797286665 
590	 0.152123788054533 
591	 0.151762720750215 
592	 0.150930450723278 
593	 0.151095337733259 
594	 0.15067237968349 
595	 0.14957236261606 
596	 0.148341380961728 
597	 0.148268151208984 
598	 0.148390880180155 
599	 0.148369333050407 
600	 0.148283513360019 
601	 0.147534534084731 
602	 0.147215234157872 
603	 0.147520297401385 
604	 0.146331652948802 
605	 0.145764482136956 
606	 0.145540080897447 
607	 0.144716966198715 
608	 0.143869253602108 
609	 0.143401149033402 
610	 0.142997896481553 
611	 0.141624773958687 
612	 0.140910518018761 
613	 0.140472596530934 
614	 0.139791720710527 
615	 0.13942681693703 
616	 0.13893263497331 
617	 0.138490813344666 
618	 0.138504833574064 
619	 0.137824692442387 
620	 0.136586374967774 
621	 0.135450343769226 
622	 0.135701736525191 
623	 0.136101528732274 
624	 0.135950323369606 
625	 0.135061522773532 
626	 0.134711218075955 
627	 0.134247995005204 
628	 0.134000478458012 
629	 0.135110831257631 
630	 0.134608949806429 
631	 0.13360877586482 
632	 0.133302876069088 
633	 0.132887054432423 
634	 0.132822836061167 
635	 0.132785359365754 
636	 0.132233886787124 
637	 0.131926747944905 
638	 0.132233328893591 
639	 0.132615144489784 
640	 0.131357270394061 
641	 0.130816556471014 
642	 0.130544512726824 
643	 0.129756791805467 
644	 0.129516831818826 
645	 0.129082593403526 
646	 0.128447321399944 
647	 0.128136203016174 
648	 0.128053528906126 
649	 0.127574680318686 
650	 0.126600596138246 
651	 0.126229633346383 
652	 0.125722884607069 
653	 0.125263290726992 
654	 0.125175639822371 
655	 0.124753224905523 
656	 0.124456384570413 
657	 0.124112299953337 
658	 0.122921713010065 
659	 0.122684387748728 
660	 0.122376473273685 
661	 0.121344112962518 
662	 0.121636185314145 
663	 0.121681166285947 
664	 0.12119630052341 
665	 0.12057141537606 
666	 0.120030548506459 
667	 0.119531407894317 
668	 0.119154948664879 
669	 0.119193100735186 
670	 0.119012975493706 
671	 0.118904397350389 
672	 0.119204600379952 
673	 0.119563218797358 
674	 0.11944797364727 
675	 0.119166357695521 
676	 0.119483779355519 
677	 0.119464651167835 
678	 0.119449134012126 
679	 0.119623379323377 
680	 0.119562539582824 
681	 0.120164449336001 
682	 0.120781542271088 
683	 0.120701830256692 
684	 0.121361525073449 
685	 0.12208965654696 
686	 0.122855531633243 
687	 0.124161624728615 
688	 0.124897379148658 
689	 0.125621138265802 
690	 0.126885290066956 
691	 0.128598765595703 
692	 0.130583662724035 
693	 0.132840365847185 
694	 0.13538130803563 
695	 0.137789027115153 
696	 0.141056171741229 
697	 0.145177392818081 
698	 0.14910220536563 
699	 0.154210573968996 
700	 0.159953550735687 
701	 0.165728751079358 
702	 0.171791205824345 
703	 0.178268333182528 
704	 0.184934484663466 
705	 0.191508699819829 
706	 0.198455769249991 
707	 0.205892579069127 
708	 0.213752025406328 
709	 0.221785394179114 
710	 0.230360116444019 
711	 0.238863462936408 
712	 0.246988084884655 
713	 0.255842833846742 
714	 0.265003491545085 
715	 0.274510689933233 
716	 0.284480329670908 
717	 0.29412760872517 
718	 0.303736217876654 
719	 0.313451817642997 
720	 0.323158613163077 
721	 0.333471313943608 
722	 0.343758376633638 
723	 0.35340693038091 
724	 0.362782372738175 
725	 0.372279991461195 
726	 0.381850165642276 
727	 0.391193989932782 
728	 0.400617369799204 
729	 0.408462458936699 
730	 0.415079038596118 
731	 0.423376952337764 
732	 0.431061336519697 
733	 0.438060967092986 
734	 0.444696258032771 
735	 0.450949298313308 
736	 0.456757126334773 
737	 0.462172304929904 
738	 0.467261172167562 
739	 0.471656641148123 
740	 0.47584772350709 
741	 0.479871566347874 
742	 0.483192966302355 
743	 0.486986684795211 
744	 0.490307076967067 
745	 0.492608591385509 
746	 0.495693590620581 
747	 0.49800197088511 
748	 0.499655322415125 
749	 0.501418157825415 
750	 0.50316413899804 
751	 0.504562624369991 
752	 0.505561598343643 
753	 0.506429781364457 
754	 0.507559963474383 
755	 0.508533347122919 
756	 0.509061322459103 
757	 0.509494140125819 
758	 0.509865820433464 
759	 0.510470885284061 
760	 0.511415064745255 
761	 0.511554999089551 
762	 0.511480751659905 
763	 0.511645113414419 
764	 0.512218400796272 
765	 0.512350755766007 
766	 0.512169689364989 
767	 0.511926414495706 
768	 0.511785214448591 
769	 0.511924467221955 
770	 0.511972702035243 
771	 0.511712623336879 
772	 0.512188639732866 
773	 0.512287229080089 
774	 0.511852757396202 
775	 0.511370888107672 
776	 0.511048670135471 
777	 0.510928219743126 
778	 0.510962257008379 
779	 0.511033864689153 
780	 0.511387909051245 
781	 0.51132108957219 
782	 0.51062722189534 
783	 0.510971309384558 
784	 0.510845264502641 
785	 0.510802895388033 
786	 0.511661417548217 
787	 0.510882453058884 
788	 0.510952998736634 
789	 0.511693807667465 
790	 0.510708979627407 
791	 0.510232300422054 
792	 0.510491780777102 
793	 0.510964357056729 
794	 0.510427691456003 
795	 0.510055334915905 
796	 0.510001301471558 
797	 0.510106087857863 
798	 0.510244194893413 
799	 0.509786072923827 
800	 0.509478328748703 
801	 0.510294806468988 
802	 0.509878525997037 
803	 0.509379313982763 
804	 0.509398009623486 
805	 0.509689513846687 
806	 0.5101106762529 
807	 0.509829829897257 
808	 0.508974218268135 
809	 0.509593808439033 
810	 0.509339697470293 
811	 0.508847295811011 
812	 0.509067691345194 
813	 0.508838776294676 
814	 0.508986597605041 
815	 0.509377450537664 
816	 0.509421081824785 
817	 0.509125662432933 
818	 0.50890431381671 
819	 0.508965644695074 
820	 0.509206619215065 
821	 0.508621206312562 
822	 0.508161579585661 
823	 0.508314211442529 
824	 0.508250862686226 
825	 0.508081296323327 
826	 0.507816492586246 
827	 0.507576937939112 
828	 0.507843107806596 
829	 0.507969319752584 
830	 0.507931770821439 
831	 0.507944705487641 
832	 0.507895653529283 
833	 0.507738013523229 
834	 0.507415435863093 
835	 0.506957887548617 
836	 0.507213516217807 
837	 0.507272255481845 
838	 0.507012789009353 
839	 0.507505106030912 
840	 0.507474970877135 
841	 0.507301309342649 
842	 0.507300412218006 
843	 0.506931888372792 
844	 0.506390691411201 
845	 0.506272741588179 
846	 0.506812732944214 
847	 0.506623548006251 
848	 0.506431986719608 
849	 0.506559360728721 
850	 0.506959897264698 
851	 0.506920610792951 
852	 0.506330792867843 
853	 0.505398618032331 
854	 0.504651857028948 
855	 0.505226027714072 
856	 0.506473533179413 
857	 0.50739583710256 
858	 0.507001377687372 
859	 0.506040387448359 
860	 0.505168118648228 
861	 0.504929258752735 
862	 0.505702937840009 
863	 0.505424086870112 
864	 0.505117758708271 
865	 0.505707645120506 
866	 0.505273387263141 
867	 0.504993826542019 
868	 0.504972421303642 
869	 0.504956696448375 
870	 0.505022139028721 
871	 0.504640431338893 
872	 0.503957996348114 
873	 0.503502451684577 
874	 0.503375348770662 
875	 0.504087217549944 
876	 0.505173322191821 
877	 0.505455417590848 
878	 0.504850194653032 
879	 0.504288915293316 
880	 0.504164042818429 
881	 0.504081753078879 
882	 0.50391387801682 
883	 0.503866461873722 
884	 0.504096040802534 
885	 0.504557953874896 
886	 0.503908697187653 
887	 0.503125398572881 
888	 0.503102344948472 
889	 0.503353713290799 
890	 0.502903772904099 
891	 0.502667468031098 
892	 0.503194100887376 
893	 0.502117276990508 
894	 0.502259063624721 
895	 0.502768279034814 
896	 0.502268990066948 
897	 0.503065737965712 
898	 0.502069056866844 
899	 0.500706676353051 
900	 0.501631649495064 
901	 0.502003177579323 
902	 0.502034323513474 
903	 0.501894935915332 
904	 0.501634346140436 
905	 0.500921112016065 
906	 0.500674238450245 
907	 0.500870967737481 
908	 0.500776883050984 
909	 0.500729720992684 
910	 0.500618709889152 
911	 0.500239581973183 
912	 0.499482364055223 
913	 0.499469979947776 
914	 0.499977734710587 
915	 0.500219602180357 
916	 0.499224565835515 
917	 0.498186937055207 
918	 0.498798315478846 
919	 0.500188862249184 
920	 0.49858860089549 
921	 0.498576940234142 
922	 0.498822669941305 
923	 0.498455030171687 
924	 0.498844515587556 
925	 0.498135977125972 
926	 0.497535058951006 
927	 0.497876753752596 
928	 0.498283030079776 
929	 0.499190967670015 
930	 0.498415795225251 
931	 0.495885832314381 
932	 0.49625600208855 
933	 0.496938839681537 
934	 0.496966165009824 
935	 0.496568344612375 
936	 0.497603655252039 
937	 0.495563217065784 
938	 0.494209895709908 
939	 0.496037063241562 
940	 0.496068804535242 
941	 0.49532308730132 
942	 0.494415872176769 
943	 0.493328803541746 
944	 0.490521503665036 
945	 0.492638673447063 
946	 0.495694355918768 
947	 0.494925762053176 
948	 0.49138526035431 
949	 0.490660226085752 
950	 0.49030028694165 
951	 0.488130870450959 
952	 0.488385376736437 
953	 0.487558841918304 
954	 0.486632208012317 
955	 0.48652348577008 
956	 0.485092373689559 
957	 0.485699546347161 
958	 0.486146129498521 
959	 0.48469624633293 
960	 0.48392959601079 
961	 0.484658630992238 
962	 0.484391478788184 
963	 0.482359273771124 
964	 0.482890544066404 
965	 0.482443394969434 
966	 0.482488603313406 
967	 0.482863004876541 
968	 0.478627551941533 
969	 0.47970752916372 
970	 0.481907149070272 
971	 0.481494174031853 
972	 0.481136261649801 
973	 0.481467060370931 
974	 0.481941269434737 
975	 0.481783696690087 
976	 0.480496388082237 
977	 0.478996458685092 
978	 0.476202766928813 
979	 0.474634702357368 
980	 0.479989474080527 
981	 0.47819314109264 
982	 0.476790567426732 
983	 0.478997790840051 
984	 0.479912047169094 
985	 0.479193990003316 
986	 0.479508357588865 
987	 0.480186969703865 
988	 0.478063774656902 
989	 0.47654328611011 
990	 0.475562995985522 
991	 0.476146853551506 
992	 0.478989263940016 
993	 0.478134186769947 
994	 0.479085354992167 
995	 0.480127845319783 
996	 0.477259460544578 
997	 0.47704877815571 
998	 0.475014428301462 
999	 0.474804762300752 
1000	 0.479540591460707 
1001	 0.480535873820871 
1002	 0.482578105718589 
1003	 0.482463201995087 
1004	 0.482513736119808 
1005	 0.482610450239823 
1006	 0.482355924055697 
1007	 0.482502759532824 
1008	 0.482439732669886 
1009	 0.482240532877009 
1010	 0.481124280170852 
1011	 0.480905597393988 
1012	 0.481229277440443 
1013	 0.482449591621598 
1014	 0.483187440920001 
1015	 0.483588110442065 
1016	 0.48322204741027 
1017	 0.483457034474263 
1018	 0.483455364329394 
1019	 0.48318370889328 
1020	 0.484599050088921 
1021	 0.485083818258099 
1022	 0.483964369567281 
1023	 0.484201749968737 
1024	 0.484322364627901 
1025	 0.484138893691144 
1026	 0.48349567659926 
1027	 0.48409471186344 
1028	 0.484815383831074 
1029	 0.485185461039029 
1030	 0.485489128590008 
1031	 0.486342895628733 
1032	 0.486595638723159 
1033	 0.48654947819471 
1034	 0.486613879176834 
1035	 0.4864564754999 
1036	 0.485951958638454 
1037	 0.485592740416106 
1038	 0.484911816665068 
1039	 0.485172253697189 
1040	 0.484569088960952 
1041	 0.48461211489417 
1042	 0.486348099136709 
1043	 0.487537579631905 
1044	 0.48878994545104 
1045	 0.489212072401381 
1046	 0.488638346337624 
1047	 0.487183726154329 
1048	 0.486277754560575 
1049	 0.485297322156767 
1050	 0.485268296286014 
1051	 0.485611974080265 
1052	 0.48647154487886 
1053	 0.487102038045998 
1054	 0.487819197562015 
1055	 0.488137413917969 
1056	 0.487462475647957 
1057	 0.487283348170711 
1058	 0.486686162016094 
1059	 0.48602591887479 
1060	 0.486509878912295 
1061	 0.486709487719203 
1062	 0.487200671554526 
1063	 0.487884365880447 
1064	 0.489109673391828 
1065	 0.489227751886695 
1066	 0.489080997659451 
1067	 0.488902506826547 
1068	 0.489347924751888 
1069	 0.489063798558863 
1070	 0.488114024149384 
1071	 0.487738964920816 
1072	 0.487249586541464 
1073	 0.485847278496137 
1074	 0.48532662882752 
1075	 0.485637078207917 
1076	 0.485660015739511 
1077	 0.485719244917346 
1078	 0.485107047953488 
1079	 0.485633602282444 
1080	 0.486635165827352 
1081	 0.487068173022899 
1082	 0.486969050976004 
1083	 0.486304030631487 
1084	 0.485366178441488 
1085	 0.485076925400404 
1086	 0.485218227512271 
1087	 0.485065631651096 
1088	 0.485127987127702 
1089	 0.485134165500401 
1090	 0.484989382322879 
1091	 0.484741465265466 
1092	 0.484608296473005 
1093	 0.484064052414482 
1094	 0.484038160382782 
1095	 0.484352332189334 
1096	 0.485153075144727 
1097	 0.48593511552539 
1098	 0.485961917803352 
1099	 0.485103179462467 
1100	 0.485049975146182 
1101	 0.485006123368758 
1102	 0.484979833538235 
1103	 0.485436383240008 
1104	 0.485485433051475 
1105	 0.485088043394977 
1106	 0.484820198890005 
1107	 0.484886571733916 
1108	 0.485021337989494 
1109	 0.485710859252023 
1110	 0.48583632609548 
1111	 0.485585284851155 
1112	 0.485047537470073 
1113	 0.484611390819579 
1114	 0.48375302257862 
1115	 0.483056187414479 
1116	 0.482043166085287 
1117	 0.481749247663 
1118	 0.481977258903424 
1119	 0.481842690674558 
1120	 0.482161047458284 
1121	 0.482432630568537 
1122	 0.482159811274785 
1123	 0.481055907010276 
1124	 0.4798906289772 
1125	 0.478004074382309 
1126	 0.47722426572589 
1127	 0.476682723498644 
1128	 0.475978855515685 
1129	 0.476039681680655 
1130	 0.47552206796939 
1131	 0.474457127342423 
1132	 0.473504223849702 
1133	 0.472568171195745 
1134	 0.471664080813785 
1135	 0.47068522950801 
1136	 0.469152847625935 
1137	 0.468021628160363 
1138	 0.467153559817178 
1139	 0.465910335994925 
1140	 0.464470957661534 
1141	 0.463180797759074 
1142	 0.461667730808024 
1143	 0.460383690487682 
1144	 0.459723046272501 
1145	 0.45833676212038 
1146	 0.456463811640108 
1147	 0.45478386963821 
1148	 0.452754524545115 
1149	 0.450867050213308 
1150	 0.449102677905788 
1151	 0.447494915525195 
1152	 0.446118171920508 
1153	 0.444778504988012 
1154	 0.44360446069763 
1155	 0.442911576875509 
1156	 0.441841125332658 
1157	 0.440516255143756 
1158	 0.439481533628586 
1159	 0.438494575200557 
1160	 0.437546727876812 
1161	 0.436794691093616 
1162	 0.436005093732036 
1163	 0.435151905576949 
1164	 0.434352510664232 
1165	 0.433630663744501 
1166	 0.433046424352131 
1167	 0.432319114069535 
1168	 0.431357058704224 
1169	 0.430939178013309 
1170	 0.4309498264214 
1171	 0.430475735490591 
1172	 0.43018739881991 
1173	 0.429689660655638 
1174	 0.428631009887647 
1175	 0.427835853265188 
1176	 0.42712288702987 
1177	 0.42653874625246 
1178	 0.426024472048957 
1179	 0.425530446848639 
1180	 0.425049513456995 
1181	 0.424660815694167 
1182	 0.424382714030504 
1183	 0.424245046194462 
1184	 0.423829416212582 
1185	 0.423461955209678 
1186	 0.423016353776036 
1187	 0.422036249537042 
1188	 0.421618534971965 
1189	 0.42173017422262 
1190	 0.421507625606993 
1191	 0.421231494410788 
1192	 0.421098482947899 
1193	 0.42097152428252 
1194	 0.420690036360021 
1195	 0.420540817999559 
1196	 0.420699765542126 
1197	 0.420487795702339 
1198	 0.419923920127466 
1199	 0.419739068351626 
1200	 0.419558238176434 
1201	 0.419520056842227 
1202	 0.419834308586042 
1203	 0.419910897919666 
1204	 0.419878626961576 
1205	 0.419933404542243 
1206	 0.4199334251772 
1207	 0.419986537609894 
1208	 0.42000448282913 
1209	 0.42023750508975 
1210	 0.420507613045373 
1211	 0.420977775363646 
1212	 0.421093951425213 
1213	 0.421046712458561 
1214	 0.421272847324611 
1215	 0.42127713026878 
1216	 0.421594052731067 
1217	 0.422453566602297 
1218	 0.422959236133784 
1219	 0.423447834886687 
1220	 0.423784565343339 
1221	 0.423816675011538 
1222	 0.424065520957123 
1223	 0.424204759630621 
1224	 0.424514876487678 
1225	 0.425047188166126 
1226	 0.425959133477761 
1227	 0.426537109689353 
1228	 0.427134794192674 
1229	 0.427641518126072 
1230	 0.427995099872896 
1231	 0.42836321614553 
1232	 0.428764936786346 
1233	 0.429122151457279 
1234	 0.429341880707299 
1235	 0.429637369740814 
1236	 0.430046658073922 
1237	 0.430348040143211 
1238	 0.430650942365471 
1239	 0.430825480664241 
1240	 0.431093948457579 
1241	 0.431054549754016 
1242	 0.431322032075198 
1243	 0.431741742096304 
1244	 0.432041571930674 
1245	 0.432528608006791 
1246	 0.432672338160839 
1247	 0.432496849982012 
1248	 0.432479263067991 
1249	 0.432245238339828 
1250	 0.432303272587987 
1251	 0.432595578635864 
1252	 0.432860729956037 
1253	 0.43325618623389 
1254	 0.433590650435057 
1255	 0.434003098778899 
1256	 0.434267009497027 
1257	 0.434244234297626 
1258	 0.434571779047109 
1259	 0.434828602020768 
1260	 0.435144026856632 
1261	 0.435129618828759 
1262	 0.435083936285846 
1263	 0.434950289972462 
1264	 0.434350119144943 
1265	 0.434144280811111 
1266	 0.43413887098261 
1267	 0.434136487482818 
1268	 0.434256995441077 
1269	 0.434321575973952 
1270	 0.434546334919904 
1271	 0.434559494604809 
1272	 0.434453433951655 
1273	 0.434247407248774 
1274	 0.433965451205212 
1275	 0.433868111533227 
1276	 0.433869045450589 
1277	 0.434052770923575 
1278	 0.434142891414058 
1279	 0.434448713479847 
1280	 0.434356784520967 
1281	 0.434077096622863 
1282	 0.433733924543568 
1283	 0.432925138853221 
1284	 0.432525238566245 
1285	 0.432327151809534 
1286	 0.432087799533293 
1287	 0.432098888879196 
1288	 0.431948883311714 
1289	 0.431637726661822 
1290	 0.431349896244316 
1291	 0.43120550458882 
1292	 0.431109883109389 
1293	 0.431269503464791 
1294	 0.43087050396938 
1295	 0.430414330826734 
1296	 0.429746175187337 
1297	 0.42913879272303 
1298	 0.428294282528724 
1299	 0.427728733874993 
1300	 0.427274959346095 
1301	 0.426739940826476 
1302	 0.426467249056195 
1303	 0.425740779050306 
1304	 0.424658632070732 
1305	 0.423743759346295 
1306	 0.422434015242475 
1307	 0.421645413305392 
1308	 0.42116685533266 
1309	 0.420619122569205 
1310	 0.419930724481525 
1311	 0.418937938032297 
1312	 0.418118277570809 
1313	 0.417420744899363 
1314	 0.416584171165871 
1315	 0.416073342912132 
1316	 0.414950459241288 
1317	 0.413234774521038 
1318	 0.41190362041452 
1319	 0.410439884135966 
1320	 0.409253707198381 
1321	 0.408533850549382 
1322	 0.407362960967358 
1323	 0.405991292908193 
1324	 0.40465960824218 
1325	 0.403052691675988 
1326	 0.401567203437462 
1327	 0.400764947989191 
1328	 0.39980032465573 
1329	 0.398438339634668 
1330	 0.396987018348458 
1331	 0.395047463203352 
1332	 0.39309354559415 
1333	 0.391597048583028 
1334	 0.390508822469209 
1335	 0.389281114022954 
1336	 0.388412306222551 
1337	 0.387060220572819 
1338	 0.385459654737751 
1339	 0.383868470186259 
1340	 0.38198097550924 
1341	 0.380296899393209 
1342	 0.378632053043261 
1343	 0.37711509113169 
1344	 0.375742824202061 
1345	 0.374223916255931 
1346	 0.373150346225989 
1347	 0.371891098368351 
1348	 0.370448419636367 
1349	 0.369284043271082 
1350	 0.367684546099479 
1351	 0.366216328066958 
1352	 0.364817846135362 
1353	 0.363458594979119 
1354	 0.361992498792416 
1355	 0.360586084697828 
1356	 0.359162733602264 
1357	 0.357628632320604 
1358	 0.356238882819583 
1359	 0.355003887349696 
1360	 0.353520210297996 
1361	 0.352036385740744 
1362	 0.350478471626261 
1363	 0.348692070376735 
1364	 0.347051638620977 
1365	 0.345779664431399 
1366	 0.344351968236925 
1367	 0.342646363295595 
1368	 0.341079037058405 
1369	 0.339225907676484 
1370	 0.336877671609265 
1371	 0.334621890975137 
1372	 0.332180564694487 
1373	 0.329783665722381 
1374	 0.327397375241117 
1375	 0.324648368254159 
1376	 0.321772939429971 
1377	 0.318850600988526 
1378	 0.315760141048556 
1379	 0.31218398601162 
1380	 0.308558311745134 
1381	 0.304522334362332 
1382	 0.299758669475953 
1383	 0.29508797000221 
1384	 0.290299644973806 
1385	 0.285527615383071 
1386	 0.280565958471752 
1387	 0.275098059822008 
1388	 0.269730773629022 
1389	 0.263877978275753 
1390	 0.258287923670501 
1391	 0.252933688945765 
1392	 0.247103180615163 
1393	 0.241786374827977 
1394	 0.236274732251035 
1395	 0.230321775205335 
1396	 0.224611219327969 
1397	 0.218900403656624 
1398	 0.21347773974546 
1399	 0.208201762741413 
1400	 0.202959189544988 
1401	 0.197887836124789 
1402	 0.193044688114538 
1403	 0.188090790787443 
1404	 0.18355282740522 
1405	 0.179706679996112 
1406	 0.175587331566992 
1407	 0.171416978596865 
1408	 0.167358793931457 
1409	 0.163701874716241 
1410	 0.160077271536044 
1411	 0.156930572562964 
1412	 0.154304451399945 
1413	 0.151339418156628 
1414	 0.148638401489667 
1415	 0.146404992555835 
1416	 0.143982735435146 
1417	 0.142177899544498 
1418	 0.140417293253927 
1419	 0.138378317161074 
1420	 0.136150760362294 
1421	 0.134321821755922 
1422	 0.132328027730339 
1423	 0.130698376923838 
1424	 0.129507221849591 
1425	 0.128207271734564 
1426	 0.126877175028085 
1427	 0.12590325933155 
1428	 0.125234266188344 
1429	 0.124477586626142 
1430	 0.124021162643485 
1431	 0.123236079174627 
1432	 0.122207996356867 
1433	 0.121259070677156 
1434	 0.120340777547885 
1435	 0.119674456974876 
1436	 0.119341352980492 
1437	 0.119037584520779 
1438	 0.118667730595437 
1439	 0.118154018739182 
1440	 0.117570145214872 
1441	 0.117178538667675 
1442	 0.116581258602809 
1443	 0.11610367604644 
1444	 0.115890043527807 
1445	 0.11578172231002 
1446	 0.11566251816318 
1447	 0.116042779145792 
1448	 0.115703933962897 
1449	 0.114950379481636 
1450	 0.114411405621103 
1451	 0.113425576440243 
1452	 0.113083582507057 
1453	 0.113090812404137 
1454	 0.11308945303001 
1455	 0.113540600706502 
1456	 0.113620044262298 
1457	 0.113553181975609 
1458	 0.113580977232683 
1459	 0.113394447211298 
1460	 0.113064152893397 
1461	 0.113142092166984 
1462	 0.113440060097339 
1463	 0.114133525748819 
1464	 0.114798337840106 
1465	 0.115150841612755 
1466	 0.1156089346819 
1467	 0.115797521210979 
1468	 0.115891866002989 
1469	 0.116074997283764 
1470	 0.116496613958318 
1471	 0.116870676954763 
1472	 0.117198816704214 
1473	 0.117778187109909 
1474	 0.118558512241908 
1475	 0.119054676124236 
1476	 0.119559723299397 
1477	 0.120064250679662 
1478	 0.12044498323396 
1479	 0.120891870389304 
1480	 0.121309657748446 
1481	 0.121969407479604 
1482	 0.122686780974318 
1483	 0.123447059710922 
1484	 0.124658488732166 
1485	 0.125471724897555 
1486	 0.125979252406054 
1487	 0.126659288492313 
1488	 0.127266003557382 
1489	 0.127596569077345 
1490	 0.128295256353427 
1491	 0.128979319383856 
1492	 0.129547958303841 
1493	 0.130342776962323 
1494	 0.13116887136715 
1495	 0.131965080388673 
1496	 0.133000222553319 
1497	 0.13402602164434 
1498	 0.135128618045341 
1499	 0.136185376237564 
1500	 0.136985095401304 
1501	 0.137958345088263 
1502	 0.138936123795953 
1503	 0.139885342191738 
1504	 0.14083671475048 
1505	 0.141971861568613 
1506	 0.142762299466821 
1507	 0.143102901815266 
1508	 0.144014459628238 
1509	 0.145089992428435 
1510	 0.14606929850327 
1511	 0.147415855367912 
1512	 0.148512676658234 
1513	 0.149320965771511 
1514	 0.150375045560484 
1515	 0.151642374367919 
1516	 0.152679392242421 
1517	 0.153579152804825 
1518	 0.154469071356247 
1519	 0.155131612265633 
1520	 0.156065312568317 
1521	 0.157349559820155 
1522	 0.15861822321174 
1523	 0.159908985095754 
1524	 0.161412620952152 
1525	 0.162635717720858 
1526	 0.163459496246012 
1527	 0.16426728561467 
1528	 0.165052375936911 
1529	 0.165630133464157 
1530	 0.166471568552608 
1531	 0.16765569659856 
1532	 0.168590774740417 
1533	 0.169482130991863 
1534	 0.170835968596799 
1535	 0.17183780356535 
1536	 0.172625360501109 
1537	 0.173474955424692 
1538	 0.17423021263063 
1539	 0.174993998978464 
1540	 0.175802057065941 
1541	 0.17670456937671 
1542	 0.177648949756021 
1543	 0.178513613305711 
1544	 0.179444763609404 
1545	 0.180207335482623 
1546	 0.180707822939432 
1547	 0.181480971817754 
1548	 0.182361732657532 
1549	 0.18316834057416 
1550	 0.184171558038391 
1551	 0.185038691908492 
1552	 0.185609282213004 
1553	 0.186422257994181 
1554	 0.187222402607503 
1555	 0.188113943532084 
1556	 0.189082772648995 
1557	 0.190471540570121 
1558	 0.191347949699635 
1559	 0.192524507058373 
1560	 0.193281938795695 
1561	 0.193442409220123 
1562	 0.19378828448844 
1563	 0.19432045327258 
1564	 0.195063472336622 
1565	 0.19600874955572 
1566	 0.197078163762267 
1567	 0.198200952855414 
1568	 0.199091107827163 
1569	 0.199737499981055 
1570	 0.200610541214912 
1571	 0.201277094345051 
1572	 0.201711483341156 
1573	 0.20262908307541 
1574	 0.203511433123257 
1575	 0.204328207165473 
1576	 0.205337269028318 
1577	 0.206842566798431 
1578	 0.207634511083996 
1579	 0.208258589061982 
1580	 0.20860493111333 
1581	 0.20823318847835 
1582	 0.20866371177792 
1583	 0.209225402863829 
1584	 0.209931844002616 
1585	 0.211386241881774 
1586	 0.212045985510622 
1587	 0.212237228318333 
1588	 0.212712611569014 
1589	 0.212937528743858 
1590	 0.213335528363436 
1591	 0.213932794601253 
1592	 0.214475083558786 
1593	 0.21471426779005 
1594	 0.215565742814395 
1595	 0.217156995239091 
1596	 0.218171184059882 
1597	 0.219282515528339 
1598	 0.220168147398584 
1599	 0.220737641705338 
1600	 0.221042247112627 
1601	 0.221047306043943 
1602	 0.221314859548267 
1603	 0.221083706268508 
1604	 0.221410342482154 
1605	 0.22239112797191 
1606	 0.223182712982257 
1607	 0.224036722191878 
1608	 0.224915787622262 
1609	 0.226014339940413 
1610	 0.226820211561853 
1611	 0.22722825753284 
1612	 0.227934071871261 
1613	 0.228288558385406 
1614	 0.228508200090727 
1615	 0.229047304808002 
1616	 0.229568343506319 
1617	 0.229658439440303 
1618	 0.229969330767945 
1619	 0.230395519376988 
1620	 0.23042105530764 
1621	 0.230844422279441 
1622	 0.231354799836368 
1623	 0.231619974768613 
1624	 0.231899824285425 
1625	 0.232681450111575 
1626	 0.233539461690426 
1627	 0.233923229905266 
1628	 0.234333626798203 
1629	 0.234629288529952 
1630	 0.234279049261288 
1631	 0.234589497964482 
1632	 0.235509075959038 
1633	 0.23569571339239 
1634	 0.235512160340906 
1635	 0.235867436624575 
1636	 0.236074545433998 
1637	 0.23660308532449 
1638	 0.237845372848656 
1639	 0.238376862753091 
1640	 0.23860047115053 
1641	 0.238759979396467 
1642	 0.238509715793035 
1643	 0.238926581024151 
1644	 0.239684221395809 
1645	 0.240037594314125 
1646	 0.24079859100149 
1647	 0.240868402232081 
1648	 0.240257437296665 
1649	 0.239803855309798 
1650	 0.238958938519 
1651	 0.238691775858934 
1652	 0.238548382124656 
1653	 0.238500118229394 
1654	 0.239068957679575 
1655	 0.239043504637045 
1656	 0.238514172003793 
1657	 0.238450106227435 
1658	 0.238528391843817 
1659	 0.238420424771984 
1660	 0.238572990329188 
1661	 0.238463279789725 
1662	 0.237921608639728 
1663	 0.23762921849893 
1664	 0.237431409619021 
1665	 0.237180364715217 
1666	 0.236892717862266 
1667	 0.236696247893744 
1668	 0.236777028234366 
1669	 0.236371914105986 
1670	 0.235681820656778 
1671	 0.235137717066349 
1672	 0.234018025824549 
1673	 0.233629022675293 
1674	 0.233958047722297 
1675	 0.233904555679911 
1676	 0.234070536536704 
1677	 0.234020915524539 
1678	 0.233669908890288 
1679	 0.233379897397191 
1680	 0.233278731398588 
1681	 0.232810198493593 
1682	 0.231910967048076 
1683	 0.231305347270921 
1684	 0.230702353658348 
1685	 0.229976776571385 
1686	 0.229456254563589 
1687	 0.228712999158086 
1688	 0.227629756845337 
1689	 0.226644115901083 
1690	 0.225640299664935 
1691	 0.22464375018132 
1692	 0.22335355429086 
1693	 0.222578383320041 
1694	 0.22209041009759 
1695	 0.221701024467648 
1696	 0.222123663651812 
1697	 0.221800754785612 
1698	 0.22086525411002 
1699	 0.220334697917667 
1700	 0.219632593086338 
1701	 0.218994510215447 
1702	 0.21864254087013 
1703	 0.218326859229714 
1704	 0.217924618725152 
1705	 0.21755976516296 
1706	 0.217762421004557 
1707	 0.217297975505241 
1708	 0.216032099661979 
1709	 0.215318775614207 
1710	 0.21454682336291 
1711	 0.213843982487078 
1712	 0.21382308580771 
1713	 0.213278300087683 
1714	 0.211876830288807 
1715	 0.211277269872201 
1716	 0.211237058244642 
1717	 0.210747143043118 
1718	 0.210318432720644 
1719	 0.210120687663908 
1720	 0.209496986993004 
1721	 0.209267620858575 
1722	 0.209772797582628 
1723	 0.210042601008455 
1724	 0.210421902601583 
1725	 0.210483919937337 
1726	 0.210417927623047 
1727	 0.210242723125989 
1728	 0.209778678886936 
1729	 0.209246304724872 
1730	 0.208393059002054 
1731	 0.208016611483451 
1732	 0.207721437855007 
1733	 0.207536617280123 
1734	 0.208017788290516 
1735	 0.207964527717388 
1736	 0.207670822279713 
1737	 0.20728246700469 
1738	 0.206461917907468 
1739	 0.20595876388654 
1740	 0.205284071708453 
1741	 0.205040428893101 
1742	 0.205703729964521 
1743	 0.205488755537625 
1744	 0.205142436821817 
1745	 0.204567758341995 
1746	 0.202785586539416 
1747	 0.201874325633274 
1748	 0.201378314998081 
1749	 0.201029325472758 
1750	 0.201534663225654 
1751	 0.20137633172356 
1752	 0.200893676090893 
1753	 0.200404586013219 
1754	 0.199534482276305 
1755	 0.198882717668596 
1756	 0.198508272082868 
1757	 0.197937978862752 
1758	 0.196769347223095 
1759	 0.196287913062825 
1760	 0.196219713451538 
1761	 0.196096377138889 
1762	 0.196637978807126 
1763	 0.19676847124248 
1764	 0.196424863301612 
1765	 0.196394785879801 
1766	 0.196565409150612 
1767	 0.196577194792654 
1768	 0.196329067266292 
1769	 0.196600107885088 
1770	 0.197381532181964 
1771	 0.197396447458858 
1772	 0.197717218357761 
1773	 0.19755552958363 
1774	 0.19605166741096 
1775	 0.195425795814512 
1776	 0.195135604347949 
1777	 0.194828882887134 
1778	 0.194750767893548 
1779	 0.194856229131649 
1780	 0.195456897687845 
1781	 0.195268411479387 
1782	 0.194881703410971 
1783	 0.194590263362093 
1784	 0.193243827295158 
1785	 0.193194786307779 
1786	 0.194369516780628 
1787	 0.194427492306572 
1788	 0.194277323081176 
1789	 0.194569757906905 
1790	 0.194371413781273 
1791	 0.194761509815905 
1792	 0.196418276424672 
1793	 0.197139942550546 
1794	 0.197319799181941 
1795	 0.19761494860239 
1796	 0.197909983632362 
1797	 0.19742501189057 
1798	 0.196449776644133 
1799	 0.195767707051881 
1800	 0.193951499346876 
1801	 0.205161671003872 
1802	 0.208435489283016 
1803	 0.209537253092836 
1804	 0.209905930152268 
1805	 0.210181690809863 
1806	 0.208635944088976 
1807	 0.207854007629762 
1808	 0.207530675996304 
1809	 0.207833986343212 
1810	 0.207164568975091 
1811	 0.206180954232922 
1812	 0.205160308148672 
1813	 0.205564970257292 
1814	 0.20469193283781 
1815	 0.201542649900563 
1816	 0.201916730590521 
1817	 0.204034857241381 
1818	 0.204921999528809 
1819	 0.208087078329712 
1820	 0.210088855935627 
1821	 0.207525385570183 
1822	 0.206782734716239 
1823	 0.206386279787506 
1824	 0.205324335418293 
1825	 0.205106460737411 
1826	 0.206406605459225 
1827	 0.206495823146949 
1828	 0.205685110903784 
1829	 0.206332724349124 
1830	 0.205993539937041 
1831	 0.20365144900177 
1832	 0.203996468353879 
1833	 0.203569520573657 
1834	 0.203103541819324 
1835	 0.204199009853517 
1836	 0.204753577249953 
1837	 0.204753709605871 
1838	 0.203766667186967 
1839	 0.203418047352615 
1840	 0.202169896224609 
1841	 0.201751430824673 
1842	 0.20270296466014 
1843	 0.203638102612276 
1844	 0.204211740350361 
1845	 0.203782209375727 
1846	 0.201199717999813 
1847	 0.199604566437129 
1848	 0.197400471292897 
1849	 0.197278776771769 
1850	 0.196929363859685 
1851	 0.196961574921393 
1852	 0.196922123579309 
1853	 0.194545201331288 
1854	 0.192926726221236 
1855	 0.19180346043661 
1856	 0.189974875107345 
1857	 0.187985879421655 
1858	 0.186638934964472 
1859	 0.184211541529825 
1860	 0.179865895600728 
1861	 0.175953079038326 
1862	 0.174370291093781 
1863	 0.173609543515268 
1864	 0.172071919464284 
1865	 0.17067910156451 
1866	 0.168230553878528 
1867	 0.165792691024296 
1868	 0.161658528725784 
1869	 0.160164091544727 
1870	 0.158587307014408 
1871	 0.156561747568463 
1872	 0.155502973438852 
1873	 0.151050770845629 
1874	 0.145658520682116 
1875	 0.141317896919723 
1876	 0.134501590597189 
1877	 0.1294560395991 
1878	 0.125516974573634 
1879	 0.123451153721088 
1880	 0.119630268866842 
1881	 0.116361002002802 
1882	 0.112234753278345 
1883	 0.106257960135547 
1884	 0.101219048229331 
1885	 9.73526407239839E-02 
1886	 9.38145238357714E-02 
1887	 9.16514514092357E-02 
1888	 9.00655455407494E-02 
1889	 8.85438341858287E-02 
1890	 8.71431527816507E-02 
1891	 8.65148534379667E-02 
1892	 0.085390891767846 
1893	 8.37407815016939E-02 
1894	 8.17131719798172E-02 
1895	 7.94244538029705E-02 
1896	 7.72765943135382E-02 
1897	 7.45761775464142E-02 
1898	 7.16072305250191E-02 
1899	 6.96287356768378E-02 
1900	 0.066844681726516 
1901	 6.63864700810386E-02 
1902	 6.81948898408998E-02 
1903	 7.01287289050252E-02 
1904	 7.02926186697913E-02 
1905	 6.94817699736443E-02 
1906	 6.55017140411316E-02 
1907	 6.06689747788664E-02 
1908	 5.84040178896985E-02 
1909	 5.79234382156109E-02 
1910	 0.057175093036418 
1911	 5.82103466802437E-02 
1912	 5.82648259058839E-02 
1913	 5.81084938016801E-02 
1914	 5.69805182829811E-02 
1915	 5.66239374711113E-02 
1916	 5.69220028070139E-02 
1917	 5.78241943696702E-02 
1918	 5.77843466828052E-02 
1919	 5.72208525069103E-02 
1920	 5.63196129601878E-02 
1921	 5.60974672179514E-02 
1922	 5.61910249347725E-02 
1923	 5.55934621026092E-02 
1924	 5.48758201773046E-02 
1925	 5.49155761337719E-02 
1926	 5.40810195354749E-02 
1927	 5.38198482142684E-02 
1928	 5.45979545779976E-02 
1929	 5.54424679588087E-02 
1930	 5.54746712379337E-02 
1931	 5.38084771986219E-02 
1932	 5.26431492267857E-02 
1933	 5.12057094706238E-02 
1934	 5.03766851825791E-02 
1935	 4.97662526168695E-02 
1936	 4.97961272124581E-02 
1937	 5.02043620473917E-02 
1938	 5.12635632770833E-02 
1939	 5.30583676029986E-02 
1940	 0.05474488106613 
1941	 5.54313960023753E-02 
1942	 5.51851328048377E-02 
1943	 5.36900478291419E-02 
1944	 5.26351094880637E-02 
1945	 5.24354521060319E-02 
1946	 5.34353755786505E-02 
1947	 5.37128055145055E-02 
1948	 5.49399257935483E-02 
1949	 5.42306566910443E-02 
1950	 5.25312693248045E-02 
1951	 5.14851435550212E-02 
1952	 4.96414507800372E-02 
1953	 4.88962786802321E-02 
1954	 0.050854730561446 
1955	 5.28134537345959E-02 
1956	 5.37651717564422E-02 
1957	 5.57965897253233E-02 
1958	 0.055941864196997 
1959	 5.30497909129648E-02 
1960	 5.22720752743309E-02 
1961	 5.16859796049909E-02 
1962	 5.19583046777134E-02 
1963	 5.19385672806821E-02 
1964	 5.41933581528518E-02 
1965	 5.51383830989051E-02 
1966	 5.60826074520391E-02 
1967	 0.057991914036983 
1968	 5.81121359778492E-02 
1969	 5.82649266912619E-02 
1970	 0.058062025804804 
1971	 5.78881186089355E-02 
1972	 5.67246783412041E-02 
1973	 5.62649666128964E-02 
1974	 5.67790672234107E-02 
1975	 5.49649379882276E-02 
1976	 5.47609686534927E-02 
1977	 5.76808510274826E-02 
1978	 6.01205849600635E-02 
1979	 6.29954251439161E-02 
1980	 6.38103355888285E-02 
1981	 6.31331682753377E-02 
1982	 6.28800343087231E-02 
1983	 6.05249760069212E-02 
1984	 6.04447238875389E-02 
1985	 6.18646135082316E-02 
1986	 6.30157535347263E-02 
1987	 6.53348784232994E-02 
1988	 6.70116974513024E-02 
1989	 6.73400662969637E-02 
1990	 6.67687599157253E-02 
1991	 6.47801561739694E-02 
1992	 6.19617373689486E-02 
1993	 6.18604778200625E-02 
1994	 6.40989974690504E-02 
1995	 6.45600801536769E-02 
1996	 6.57514727264605E-02 
1997	 6.69472761279417E-02 
1998	 6.72807975220109E-02 
1999	 6.69997876580282E-02 
2000	 0.06669757979453 
2001	 6.77672277550025E-02 
2002	 6.57780246629249E-02 
2003	 6.24464710867494E-02 
2004	 6.19653745992345E-02 
2005	 6.25160980337449E-02 
2006	 6.34027968010496E-02 
2007	 6.62144912884291E-02 
2008	 6.86022945103606E-02 
2009	 7.19595227462585E-02 
2010	 7.35588579821502E-02 
2011	 7.50792187395253E-02 
2012	 7.59252433738394E-02 
2013	 7.62393483398449E-02 
2014	 7.38623548459409E-02 
2015	 7.28992392690312E-02 
2016	 7.15021093818587E-02 
2017	 6.97733027278691E-02 
2018	 7.00040347112017E-02 
2019	 6.97362946826878E-02 
2020	 6.95823371754899E-02 
2021	 7.04325592756888E-02 
2022	 7.23158378248124E-02 
2023	 7.30078256710614E-02 
2024	 7.46722669328548E-02 
2025	 7.50694093621768E-02 
2026	 7.42539827112909E-02 
2027	 7.36933592159532E-02 
2028	 7.29724486460696E-02 
2029	 7.04529439978267E-02 
2030	 7.22360449879721E-02 
2031	 7.04882613909548E-02 
2032	 7.07389741035541E-02 
2033	 7.29978655323544E-02 
2034	 7.42560925694712E-02 
2035	 7.50488402250133E-02 
2036	 7.61385759360809E-02 
2037	 7.80547014240179E-02 
2038	 7.83905451846532E-02 
2039	 7.69691789754633E-02 
2040	 7.69431956418454E-02 
2041	 7.61652577526027E-02 
2042	 7.72830991965299E-02 
2043	 7.81022999311103E-02 
2044	 7.83558177871451E-02 
2045	 7.73661671934176E-02 
2046	 7.32794232280305E-02 
2047	 7.26552012641313E-02 
2048	 7.29103493854701E-02 
2049	 7.36301741325472E-02 
2050	 7.72470778716677E-02 
2051	 7.89805034871248E-02 
2052	 7.94411498521911E-02 
2053	 8.08270971899139E-02 
2054	 8.30944930989442E-02 
2055	 8.34887080410965E-02 
2056	 8.32483982377427E-02 
2057	 8.28055201228017E-02 
2058	 8.21197470402779E-02 
2059	 8.15815752946109E-02 
2060	 7.95787354551214E-02 
2061	 7.74791530426902E-02 
2062	 7.57139643964252E-02 
2063	 7.10639948320003E-02 
2064	 6.98085095654801E-02 
2065	 7.15701637035338E-02 
2066	 7.18800729345834E-02 
2067	 7.30087548872984E-02 
2068	 7.37199785060013E-02 
2069	 7.32351460342123E-02 
2070	 7.42120329852176E-02 
2071	 7.66690795949397E-02 
2072	 7.75079145744974E-02 
2073	 7.93479387723469E-02 
2074	 8.25135199280801E-02 
2075	 8.38710327738014E-02 
2076	 8.47541463819779E-02 
2077	 8.47455851776698E-02 
2078	 8.31259145306839E-02 
2079	 8.23376669801039E-02 
2080	 8.02495631242952E-02 
2081	 8.00029512624352E-02 
2082	 8.06465036553179E-02 
2083	 8.22972541566985E-02 
2084	 8.76039252775129E-02 
2085	 8.90876786553067E-02 
2086	 8.97081265173067E-02 
2087	 8.83513938832103E-02 
2088	 8.70905619981735E-02 
2089	 8.65158861437079E-02 
2090	 0.087752866000294 
2091	 9.33494757483547E-02 
2092	 9.38483063307322E-02 
2093	 9.21897979815913E-02 
2094	 0.09168151190345 
2095	 8.88219740549975E-02 
2096	 8.82931398462167E-02 
2097	 8.97197854412675E-02 
2098	 9.07249608575119E-02 
2099	 9.27888576541184E-02 
2100	 9.37079978048894E-02 
2101	 9.49742340529806E-02 
2102	 9.49312106608041E-02 
2103	 9.26988538741415E-02 
2104	 9.06897952676716E-02 
2105	 9.10748431786982E-02 
2106	 9.27841398641103E-02 
2107	 9.32295812969658E-02 
2108	 9.52674270897194E-02 
2109	 9.58305606288105E-02 
2110	 9.20761748594987E-02 
2111	 9.42936819277773E-02 
2112	 0.10198913438016 
2113	 0.105053739974907 
2114	 0.110887030370136 
2115	 0.112184192449159 
2116	 0.105217851039798 
2117	 0.103652876278939 
2118	 0.103083278303262 
2119	 0.10273560917348 
2120	 0.104308872898822 
2121	 0.109938995802144 
2122	 0.112936414185306 
2123	 0.116835509741362 
2124	 0.117172781391416 
2125	 0.117756870359985 
2126	 0.112987774855231 
2127	 0.099063296825764 
2128	 9.46756708112782E-02 
2129	 0.089610646394111 
2130	 8.95532765337878E-02 
2131	 0.100812240440345 
2132	 0.104768908017794 
2133	 0.108235453638726 
2134	 0.109095113590723 
2135	 0.103150015728835 
2136	 0.101804985213369 
2137	 0.103120572900102 
2138	 0.101041588087452 
2139	 0.102440592163123 
2140	 0.10772178070903 
2141	 0.109518141574321 
2142	 0.110910914067475 
2143	 0.111598104849359 
2144	 0.111113086176198 
2145	 0.111300376937106 
2146	 0.111014482937341 
2147	 0.11068856711433 
2148	 0.110897019491356 
2149	 0.109907120615695 
2150	 0.10835576908367 
2151	 0.106680743889462 
2152	 0.102223311100587 
2153	 0.101162580192452 
2154	 0.102457619403441 
2155	 0.102689698874282 
2156	 0.105389653347525 
2157	 0.108307056044025 
2158	 0.108329743164492 
2159	 0.105936083646862 
2160	 0.105375160341684 
2161	 0.103368488359987 
2162	 0.104058747905285 
2163	 0.106466225555925 
2164	 0.108505622362396 
2165	 0.11262151225954 
2166	 0.113805821930752 
2167	 0.113718428808992 
2168	 0.114282817090416 
2169	 0.114566225587688 
2170	 0.113405930025803 
2171	 0.110948127819596 
2172	 0.109834405512123 
2173	 0.107879254830956 
2174	 0.106126773925978 
2175	 0.106545545445631 
2176	 0.105769908594579 
2177	 0.10639201416955 
2178	 0.106978968161192 
2179	 0.107793534657787 
2180	 0.1109784251853 
2181	 0.111062181976004 
2182	 0.108686323969408 
2183	 0.107856626133575 
2184	 0.106760890261537 
2185	 0.105426709776107 
2186	 0.103238492151879 
2187	 0.103897504304827 
2188	 0.105838842487632 
2189	 0.107104575360531 
2190	 0.112912228583054 
2191	 0.113356585687905 
2192	 0.107356680043773 
2193	 0.105955891219062 
2194	 0.105043355953539 
2195	 0.103070915907134 
2196	 0.105437552788862 
2197	 0.109754233445288 
2198	 0.112583980071208 
2199	 0.116171030472929 
2200	 0.117588648259728 
2201	 0.11871644537144 
2202	 0.117832496544668 
2203	 0.113956380767939 
2204	 0.111117844320842 
2205	 0.106856991749262 
2206	 0.104907325842019 
2207	 0.103059302745592 
2208	 0.103639454318827 
2209	 0.10726229401141 
2210	 0.10967339079611 
2211	 0.11470767861106 
2212	 0.115770344077583 
2213	 0.114029688371766 
2214	 0.112985543103437 
2215	 0.109137087977654 
2216	 0.107330877268175 
2217	 0.107184287285157 
2218	 0.106475479563816 
2219	 0.10640154213296 
2220	 0.107341106298454 
2221	 0.10833233021395 
2222	 0.110629594566858 
2223	 0.110751902655232 
2224	 0.110740300436627 
2225	 0.109603901037246 
2226	 0.105987326577749 
2227	 0.104171496735726 
2228	 0.101841205801781 
2229	 0.101120568227016 
2230	 0.101402467611008 
2231	 0.103084917755232 
2232	 0.10695299533461 
2233	 0.109286955062427 
2234	 0.114465098683164 
2235	 0.114591549180357 
2236	 0.108766611140915 
2237	 0.108054826615037 
2238	 0.107091961732684 
2239	 0.106754551074208 
2240	 0.110902515174048 
2241	 0.112223232916676 
2242	 0.114185542784997 
2243	 0.11249686966229 
2244	 0.110551961920252 
2245	 0.11023000723063 
2246	 0.105841308354487 
2247	 0.102024240035973 
2248	 9.90365204847555E-02 
2249	 9.51229359949573E-02 
2250	 9.42988898590988E-02 
2251	 9.55764164117422E-02 
2252	 9.73075948394236E-02 
2253	 0.101972913153308 
2254	 0.104268347360322 
2255	 0.106617999416588 
2256	 0.107777325993366 
2257	 0.107606960814781 
2258	 0.107253435523767 
2259	 0.106928223329886 
2260	 0.104689791478491 
2261	 9.91480396710624E-02 
2262	 9.72655601510804E-02 
2263	 9.65384507174382E-02 
2264	 9.47845417060302E-02 
2265	 9.63209014413791E-02 
2266	 9.49261033161104E-02 
2267	 8.93156690404215E-02 
2268	 8.60515912130733E-02 
2269	 8.54531340571267E-02 
2270	 8.21230696377355E-02 
2271	 8.09645022483931E-02 
2272	 8.14843879065962E-02 
2273	 8.09121509193902E-02 
2274	 7.95399512069733E-02 
2275	 8.19301003804752E-02 
2276	 8.22325140266803E-02 
2277	 8.26619503798409E-02 
2278	 0.085239257549485 
2279	 8.42958239017252E-02 
2280	 8.06851801226484E-02 
2281	 7.80608388788219E-02 
2282	 7.17775711499254E-02 
2283	 6.97920747625225E-02 
2284	 7.03446006570272E-02 
2285	 7.02936683148578E-02 
2286	 7.30469269462826E-02 
2287	 7.40087180541662E-02 
2288	 7.42601470111477E-02 
2289	 7.39183870759914E-02 
2290	 7.43865422180667E-02 
2291	 7.23256947009883E-02 
2292	 6.63875211946484E-02 
2293	 6.31776854381356E-02 
2294	 5.62066318625517E-02 
2295	 5.52262035622183E-02 
2296	 5.85266354920952E-02 
2297	 6.44089547924084E-02 
2298	 8.09203320928536E-02 
2299	 8.77982297984871E-02 
2300	 9.06699351391127E-02 
2301	 9.53073741444593E-02 
2302	 9.03626152120586E-02 
2303	 8.83448980207624E-02 
2304	 9.51840995754952E-02 
2305	 9.36548851270403E-02 
2306	 9.19451521074351E-02 
2307	 9.14672174779347E-02 
2308	 9.04607915147229E-02 
2309	 8.91264118713447E-02 
2310	 8.70831741897337E-02 
2311	 8.76016698520829E-02 
2312	 8.29691213530184E-02 
2313	 8.31778089447781E-02 
2314	 8.68771449118546E-02 
2315	 8.54564565902131E-02 
2316	 8.51582596665797E-02 
2317	 8.35961432717767E-02 
2318	 8.17404535141891E-02 
2319	 7.96682751070796E-02 
2320	 7.97897405176076E-02 
2321	 8.10688108636941E-02 
2322	 0.082637581326066 
2323	 8.47718762672027E-02 
2324	 8.59204675339292E-02 
2325	 8.82527139456514E-02 
2326	 8.80198385726999E-02 
2327	 8.87120020646305E-02 
2328	 8.59866328709957E-02 
2329	 7.38565610422053E-02 
2330	 7.05105960483891E-02 
2331	 6.88496636856687E-02 
2332	 6.98346037281604E-02 
2333	 8.19736306935286E-02 
2334	 0.088366394184573 
2335	 0.094755971011535 
2336	 9.43487595938843E-02 
2337	 8.67216058108683E-02 
2338	 8.10288875245104E-02 
2339	 6.85259062075167E-02 
2340	 6.34135101209024E-02 
2341	 6.51894007240592E-02 
2342	 6.11437330046461E-02 
2343	 6.34381992083013E-02 
2344	 6.62124093266054E-02 
2345	 0.061408538257656 
2346	 6.79262348969245E-02 
2347	 6.66171870256628E-02 
2348	 6.89115033258398E-02 
2349	 0.077732360928977 
2350	 8.06335258025002E-02 
2351	 9.31895540054818E-02 
2352	 9.55510495614508E-02 
2353	 9.27879363851169E-02 
2354	 8.89264666043466E-02 
2355	 8.23573570827688E-02 
2356	 8.06198407096042E-02 
2357	 6.65312448455669E-02 
2358	 7.08801318705862E-02 
2359	 7.38964585253475E-02 
2360	 6.37509755108702E-02 
2361	 7.68600275391097E-02 
2362	 7.31778036016216E-02 
2363	 6.61100217572273E-02 
2364	 6.66733615694769E-02 
2365	 6.03468283850229E-02 
2366	 5.84917797493157E-02 
2367	 5.31441375665602E-02 
2368	 5.72953040098498E-02 
2369	 6.00571714555167E-02 
2370	 5.68545299698548E-02 
2371	 5.54494642302518E-02 
2372	 5.35364808353597E-02 
2373	 6.31146338451064E-02 
2374	 6.90491036976828E-02 
2375	 6.70085633370245E-02 
2376	 7.12414243346105E-02 
2377	 6.54391150241879E-02 
2378	 6.09121237117123E-02 
2379	 7.36050421027332E-02 
2380	 7.42493248907618E-02 
2381	 7.37546839358709E-02 
2382	 7.53847816369779E-02 
2383	 0.078885304829195 
2384	 9.83739546143493E-02 
2385	 0.101488167714989 
2386	 0.100691609464348 
2387	 9.74780583490053E-02 
2388	 7.78830081434718E-02 
2389	 6.69568096710349E-02 
2390	 6.23234593680901E-02 
2391	 0.058195180932487 
2392	 5.50575793166434E-02 
2393	 4.89792967122468E-02 
2394	 4.07640135234018E-02 
2395	 4.52431425137301E-02 
2396	 5.32262660387581E-02 
2397	 5.66641844808128E-02 
2398	 6.99774904455285E-02 
2399	 0.072924811567237 
2400	 6.36777438813899E-02 
2401	 6.65402939752971E-02 
2402	 7.52599238363222E-02 
2403	 0.08341103164278 
2404	 0.100355814132796 
2405	 9.96672205737385E-02 
2406	 8.46802619397395E-02 
2407	 8.03527510181234E-02 
2408	 7.54646060170534E-02 
2409	 0.067398403279832 
2410	 6.54862133105895E-02 
2411	 0.057616576246423 
2412	 3.74931781369884E-02 
2413	 2.02530439389605E-02 
2414	 1.64891591401344E-03 
2415	-1.05649073634442E-03 
2416	-4.44588196789031E-03 
2417	-2.55902738088286E-03 
2418	 2.25947074227599E-02 
2419	 3.28957268537597E-02 
2420	 4.16230767440695E-02 
2421	 4.58841990172788E-02 
2422	 3.90743179984403E-02 
2423	 3.78933278640199E-02 
2424	 3.91368822032141E-02 
2425	 3.21027041594647E-02 
2426	 1.60019854396117E-02 
2427	 1.66452745211617E-02 
2428	 1.85722513133454E-02 
2429	 3.01261490850803E-02 
2430	 6.82771221566176E-02 
2431	 8.88806902629005E-02 
2432	 9.97191535806682E-02 
2433	 0.106280894957099 
2434	 0.103602439023938 
2435	 9.67026224372007E-02 
2436	 0.083484962081256 
2437	 7.49268339140394E-02 
2438	 7.45275324188302E-02 
2439	 5.75734969015973E-02 
2440	 2.27486761592937E-02 
2441	 1.45612824869876E-02 
2442	-6.1030232403079E-03 
2443	 0.025278321632792 
2444	 6.34159461976202E-02 
2445	 0.093600983275296 
2446	 0.10355762301458 
2447	 0.114853914756146 
2448	 0.105275534767829 
2449	 0.078098599967243 
2450	 8.68138529426139E-02 
2451	 8.38236084968531E-02 
2452	 0.083170755781689 
2453	 0.101241398868421 
2454	 0.109390974182758 
2455	 0.108752620023657 
2456	 8.61594070879905E-02 
2457	 6.25094137387408E-02 
2458	 0.017490834607144 
2459	-2.56700856448848E-02 
2460	-3.36753584730421E-02 
2461	-3.91062551285615E-02 
2462	-2.10782227233051E-02 
2463	-8.98641994825608E-03 
2464	-1.88516682490363E-02 
2465	-2.50622831334839E-02 
2466	-2.39769435338188E-02 
2467	-0.021387629306102 
2468	-1.19929085419089E-02 
2469	 1.06579838064257E-02 
2470	 7.51396990021404E-03 
2471	 1.83614610403351E-02 
2472	 2.98472615428278E-02 
2473	 2.27297910550191E-02 
2474	 4.24446843257082E-02 
2475	 0.022415400339008 
2476	-3.40764121206086E-03 
2477	-6.24484804066132E-03 
2478	-0.033155258168832 
2479	-0.059261028687925 
2480	-7.37788394625138E-02 
2481	-7.22424827856082E-02 
2482	-4.13879003660616E-02 
2483	 1.26971724289223E-02 
2484	 7.24299018154538E-02 
2485	 9.45262823060133E-02 
2486	 6.10718698578533E-02 
2487	 2.51982501824536E-02 
2488	-5.76119376103012E-03 
2489	-3.62124812475796E-02 
2490	-2.55106845029946E-02 
2491	-1.01751954108264E-03 
2492	-1.62259175257801E-02 
2493	-3.77648170869368E-03 
2494	-2.64417566208702E-02 
2495	-5.95913577420359E-02 
2496	-5.16998844251886E-02 
2497	-0.111237091421128 
2498	-0.152861018664482 
2499	-0.178417648428983 
2500	-0.192424016939627 
